sample,adc,filtered,lead_off
0,6641,-0.000,0
1,6711,0.154,0
2,6780,1.331,0
3,6820,5.654,0
4,6832,15.988,0
5,6839,34.378,0
6,6836,60.703,0
7,6839,92.496,0
8,6854,125.833,0
9,6878,156.745,0
10,6905,182.481,0
11,6922,202.125,0
12,6937,216.404,0
13,6940,226.967,0
14,6958,235.605,0
15,6976,243.810,0
16,6984,252.674,0
17,6982,262.816,0
18,6988,274.167,0
19,6984,285.907,0
20,6988,296.721,0
21,7009,305.317,0
22,7048,311.096,0
23,7113,314.788,0
24,7172,318.730,0
25,7199,326.354,0
26,7205,340.809,0
27,7203,363.328,0
28,7202,392.423,0
29,7197,424.372,0
30,7189,454.537,0
31,7200,478.780,0
32,7235,494.598,0
33,7287,501.883,0
34,7327,503.071,0
35,7354,502.360,0
36,7367,504.172,0
37,7361,511.553,0
38,7362,525.227,0
39,7386,543.670,0
40,7430,564.189,0
41,7489,584.453,0
42,7550,603.625,0
43,7563,622.500,0
44,7557,642.526,0
45,7530,664.311,0
46,7515,686.690,0
47,7519,707.016,0
48,7526,722.382,0
49,7546,730.917,0
50,7581,732.474,0
51,7626,728.689,0
52,7684,722.665,0
53,7741,718.432,0
54,7780,720.162,0
55,7810,731.156,0
56,7831,752.813,0
57,7857,784.114,0
58,7889,821.911,0
59,7916,861.936,0
60,7943,900.017,0
61,7948,933.002,0
62,7943,959.103,0
63,7948,977.726,0
64,7909,989.077,0
65,7844,993.529,0
66,7792,990.779,0
67,7749,979.503,0
68,7717,958.015,0
69,7695,925.468,0
70,7677,882.773,0
71,7652,832.761,0
72,7621,779.534,0
73,7582,727.275,0
74,7550,679.071,0
75,7525,636.266,0
76,7517,598.605,0
77,7494,564.935,0
78,7443,533.865,0
79,7376,503.908,0
80,7296,473.204,0
81,7229,439.442,0
82,7201,400.335,0
83,7188,354.627,0
84,7173,302.989,0
85,7168,248.075,0
86,7155,193.704,0
87,7132,143.733,0
88,7105,101.050,0
89,7073,66.935,0
90,7045,40.923,0
91,7033,21.145,0
92,7030,5.056,0
93,7022,-9.724,0
94,7010,-24.832,0
95,6996,-41.025,0
96,6973,-58.331,0
97,6958,-76.286,0
98,6952,-94.160,0
99,6953,-111.100,0
100,6962,-126.225,0
101,6984,-138.741,0
102,6983,-148.023,0
103,6947,-153.836,0
104,6904,-156.798,0
105,6848,-158.723,0
106,6791,-162.422,0
107,6728,-171.048,0
108,6688,-187.381,0
109,6684,-213.102,0
110,6704,-248.002,0
111,6720,-289.426,0
112,6749,-332.509,0
113,6807,-371.168,0
114,6894,-399.181,0
115,7009,-410.893,0
116,7131,-401.694,0
117,7264,-368.555,0
118,7383,-310.602,0
119,7537,-229.379,0
120,7750,-128.229,0
121,8027,-10.536,0
122,8396,122.604,0
123,8842,274.169,0
124,9349,451.611,0
125,9810,665.377,0
126,10136,925.240,0
127,10220,1234.732,0
128,9984,1584.942,0
129,9436,1949.784,0
130,8598,2284.981,0
131,7657,2532.386,0
132,6791,2630.163,0
133,6126,2527.595,0
134,5721,2200.653,0
135,5573,1662.840,0
136,5610,966.930,0
137,5741,196.303,0
138,5923,-551.956,0
139,6095,-1187.245,0
140,6229,-1643.241,0
141,6313,-1889.011,0
142,6336,-1931.556,0
143,6324,-1810.155,0
144,6262,-1584.718,0
145,6197,-1321.428,0
146,6138,-1079.134,0
147,6088,-899.282,0
148,6059,-801.192,0
149,6058,-783.025,0
150,6066,-827.190,0
151,6088,-907.981,0
152,6100,-999.162,0
153,6108,-1079.675,0
154,6110,-1136.545,0
155,6093,-1165.051,0
156,6068,-1167.115,0
157,6049,-1149.009,0
158,6046,-1119.082,0
159,6060,-1085.746,0
160,6091,-1055.841,0
161,6103,-1033.563,0
162,6098,-1020.166,0
163,6069,-1014.515,0
164,6031,-1014.170,0
165,6006,-1016.517,0
166,6014,-1019.476,0
167,6023,-1021.673,0
168,6015,-1022.386,0
169,5989,-1021.730,0
170,5965,-1020.866,0
171,5956,-1021.628,0
172,5951,-1025.411,0
173,5960,-1032.065,0
174,5981,-1039.587,0
175,6000,-1044.821,0
176,6011,-1044.786,0
177,6024,-1037.965,0
178,6034,-1024.851,0
179,6028,-1007.469,0
180,6009,-988.363,0
181,5976,-969.775,0
182,5949,-953.377,0
183,5948,-940.362,0
184,5965,-931.483,0
185,5989,-926.852,0
186,6001,-925.765,0
187,6000,-926.795,0
188,5989,-928.156,0
189,5966,-928.143,0
190,5948,-925.532,0
191,5941,-919.904,0
192,5941,-911.752,0
193,5938,-902.372,0
194,5938,-893.563,0
195,5936,-887.135,0
196,5943,-884.217,0
197,5937,-884.624,0
198,5929,-886.738,0
199,5947,-888.095,0
200,5978,-886.237,0
201,6001,-879.369,0
202,6002,-866.826,0
203,5971,-849.478,0
204,5946,-829.810,0
205,5930,-811.267,0
206,5926,-796.913,0
207,5921,-788.185,0
208,5905,-784.619,0
209,5888,-784.698,0
210,5870,-787.083,0
211,5863,-791.333,0
212,5880,-797.614,0
213,5925,-805.631,0
214,5949,-813.543,0
215,5959,-817.918,0
216,5959,-815.070,0
217,5960,-802.899,0
218,5955,-782.010,0
219,5952,-755.584,0
220,5949,-728.223,0
221,5958,-704.315,0
222,5979,-686.519,0
223,5993,-674.935,0
224,6017,-667.322,0
225,6053,-660.215,0
226,6097,-650.199,0
227,6141,-634.785,0
228,6179,-612.749,0
229,6206,-584.065,0
230,6187,-549.720,0
231,6153,-511.720,0
232,6128,-473.208,0
233,6123,-438.137,0
234,6130,-410.265,0
235,6140,-392.015,0
236,6147,-383.824,0
237,6148,-384.207,0
238,6161,-390.283,0
239,6175,-398.392,0
240,6195,-404.674,0
241,6213,-405.719,0
242,6228,-399.295,0
243,6248,-384.928,0
244,6257,-363.980,0
245,6253,-339.175,0
246,6236,-313.838,0
247,6210,-291.143,0
248,6200,-273.538,0
249,6214,-262.281,0
250,6224,-257.152,0
251,6219,-256.617,0
252,6206,-258.661,0
253,6181,-261.810,0
254,6142,-265.678,0
255,6100,-270.886,0
256,6049,-278.609,0
257,5992,-290.094,0
258,5930,-306.468,0
259,5863,-328.794,0
260,5795,-358.170,0
261,5710,-395.650,0
262,5621,-441.998,0
263,5533,-497.398,0
264,5459,-561.149,0
265,5409,-631.416,0
266,5367,-705.188,0
267,5318,-778.681,0
268,5265,-848.250,0
269,5218,-911.414,0
270,5174,-967.314,0
271,5138,-1016.355,0
272,5085,-1059.446,0
273,5006,-1097.548,0
274,4933,-1131.865,0
275,4870,-1164.246,0
276,4835,-1197.062,0
277,4801,-1232.412,0
278,4749,-1271.260,0
279,4694,-1313.209,0
280,4641,-1356.905,0
281,4613,-1400.552,0
282,4602,-1442.123,0
283,4613,-1479.354,0
284,4622,-1509.852,0
285,4631,-1531.513,0
286,4629,-1543.102,0
287,4612,-1544.692,0
288,4587,-1537.747,0
289,4587,-1524.769,0
290,4609,-1508.480,0
291,4626,-1490.831,0
292,4627,-1472.559,0
293,4614,-1453.693,0
294,4586,-1434.516,0
295,4550,-1416.184,0
296,4537,-1400.570,0
297,4517,-1389.420,0
298,4500,-1383.454,0
299,4492,-1382.080,0
300,4496,-1383.764,0
301,4512,-1386.555,0
302,4529,-1388.461,0
303,4555,-1387.612,0
304,4546,-1382.372,0
305,4517,-1371.672,0
306,4496,-1355.574,0
307,4486,-1335.543,0
308,4485,-1314.004,0
309,4499,-1293.467,0
310,4507,-1275.728,0
311,4506,-1261.474,0
312,4502,-1250.351,0
313,4501,-1241.303,0
314,4493,-1232.906,0
315,4488,-1223.701,0
316,4477,-1212.622,0
317,4454,-1199.437,0
318,4439,-1185.036,0
319,4437,-1171.247,0
320,4432,-1160.045,0
321,4424,-1152.587,0
322,4424,-1148.687,0
323,4427,-1146.896,0
324,4445,-1144.981,0
325,4461,-1140.563,0
326,4472,-1131.767,0
327,4476,-1117.748,0
328,4465,-1098.949,0
329,4449,-1076.977,0
330,4433,-1054.118,0
331,4415,-1032.690,0
332,4410,-1014.457,0
333,4419,-1000.284,0
334,4429,-990.030,0
335,4430,-982.695,0
336,4422,-976.874,0
337,4402,-971.317,0
338,4376,-965.336,0
339,4363,-958.886,0
340,4365,-952.296,0
341,4392,-945.770,0
342,4432,-938.886,0
343,4463,-930.424,0
344,4471,-918.717,0
345,4468,-902.446,0
346,4457,-881.382,0
347,4453,-856.549,0
348,4463,-829.770,0
349,4493,-802.867,0
350,4529,-776.944,0
351,4560,-752.084,0
352,4567,-727.624,0
353,4549,-702.876,0
354,4535,-677.845,0
355,4519,-653.432,0
356,4516,-630.988,0
357,4533,-611.597,0
358,4560,-595.510,0
359,4587,-581.965,0
360,4606,-569.471,0
361,4615,-556.385,0
362,4623,-541.438,0
363,4630,-523.947,0
364,4620,-503.755,0
365,4608,-481.242,0
366,4595,-457.496,0
367,4583,-434.395,0
368,4579,-414.304,0
369,4588,-399.392,0
370,4595,-390.742,0
371,4603,-387.735,0
372,4608,-388.098,0
373,4601,-388.650,0
374,4597,-386.461,0
375,4597,-379.902,0
376,4602,-369.057,0
377,4628,-355.333,0
378,4679,-340.420,0
379,4713,-325.076,0
380,4713,-308.577,0
381,4685,-289.451,0
382,4658,-267.001,0
383,4629,-242.386,0
384,4617,-218.549,0
385,4604,-199.159,0
386,4595,-187.269,0
387,4578,-184.316,0
388,4562,-189.817,0
389,4567,-201.619,0
390,4595,-216.387,0
391,4629,-230.067,0
392,4647,-238.542,0
393,4667,-238.623,0
394,4685,-228.956,0
395,4688,-210.273,0
396,4688,-184.933,0
397,4693,-156.111,0
398,4694,-126.926,0
399,4700,-99.775,0
400,4698,-76.109,0
401,4698,-56.609,0
402,4685,-41.527,0
403,4659,-30.970,0
404,4638,-25.057,0
405,4636,-23.798,0
406,4651,-26.649,0
407,4681,-32.037,0
408,4709,-37.318,0
409,4728,-39.395,0
410,4741,-35.734,0
411,4751,-25.216,0
412,4743,-8.385,0
413,4725,12.856,0
414,4703,35.754,0
415,4695,57.284,0
416,4695,74.811,0
417,4696,86.679,0
418,4700,92.497,0
419,4691,93.002,0
420,4681,89.649,0
421,4680,84.159,0
422,4698,78.304,0
423,4712,73.937,0
424,4717,72.896,0
425,4711,76.489,0
426,4700,84.815,0
427,4694,96.484,0
428,4692,109.094,0
429,4696,120.222,0
430,4700,128.397,0
431,4699,133.524,0
432,4700,136.613,0
433,4712,139.094,0
434,4744,142.267,0
435,4777,147.208,0
436,4777,154.875,0
437,4754,165.875,0
438,4729,179.877,0
439,4712,195.309,0
440,4718,209.823,0
441,4729,221.296,0
442,4765,228.735,0
443,4788,232.683,0
444,4787,234.928,0
445,4778,237.613,0
446,4783,242.271,0
447,4807,249.510,0
448,4847,259.490,0
449,4880,272.533,0
450,4885,289.191,0
451,4894,309.607,0
452,4909,332.901,0
453,4915,357.273,0
454,4921,380.738,0
455,4946,401.865,0
456,4970,420.253,0
457,4976,436.568,0
458,4960,451.926,0
459,4936,466.836,0
460,4901,480.448,0
461,4860,490.618,0
462,4804,494.637,0
463,4760,490.115,0
464,4741,475.740,0
465,4749,451.903,0
466,4762,421.023,0
467,4773,387.232,0
468,4771,355.314,0
469,4719,329.258,0
470,4640,310.828,0
471,4556,298.696,0
472,4487,288.704,0
473,4436,275.377,0
474,4405,253.941,0
475,4385,221.932,0
476,4379,179.860,0
477,4387,130.977,0
478,4410,80.505,0
479,4458,34.692,0
480,4486,-0.184,0
481,4460,-19.113,0
482,4414,-20.111,0
483,4378,-5.582,0
484,4367,18.010,0
485,4365,42.418,0
486,4353,60.530,0
487,4349,68.348,0
488,4357,65.503,0
489,4378,54.694,0
490,4405,40.598,0
491,4435,28.515,0
492,4453,23.000,0
493,4454,26.738,0
494,4439,39.917,0
495,4398,60.220,0
496,4351,83.389,0
497,4316,104.236,0
498,4313,117.993,0
499,4333,121.768,0
500,4360,115.557,0
501,4387,102.256,0
502,4401,86.630,0
503,4408,73.743,0
504,4438,67.587,0
505,4490,70.534,0
506,4582,83.728,0
507,4708,107.969,0
508,4847,144.469,0
509,4983,195.015,0
510,5074,261.314,0
511,5164,343.819,0
512,5270,440.856,0
513,5424,548.979,0
514,5664,664.669,0
515,6031,786.765,0
516,6494,918.761,0
517,7007,1069.867,0
518,7483,1253.688,0
519,7820,1484.081,0
520,7913,1768.831,0
521,7709,2102.728,0
522,7197,2462.279,0
523,6435,2804.455,0
524,5534,3071.051,0
525,4733,3198.991,0
526,4126,3135.360,0
527,3762,2853.509,0
528,3628,2364.493,0
529,3662,1718.921,0
530,3788,997.953,0
531,3962,296.093,0
532,4128,-298.977,0
533,4263,-723.788,0
534,4361,-949.519,0
535,4417,-983.676,0
536,4438,-863.736,0
537,4422,-645.406,0
538,4374,-389.125,0
539,4320,-148.155,0
540,4288,39.564,0
541,4285,155.079,0
542,4280,197.762,0
543,4288,181.056,0
544,4298,126.107,0
545,4308,55.365,0
546,4309,-12.241,0
547,4315,-63.910,0
548,4319,-93.487,0
549,4324,-100.479,0
550,4325,-88.416,0
551,4330,-63.202,0
552,4321,-31.684,0
553,4314,-0.495,0
554,4313,24.940,0
555,4321,41.296,0
556,4342,48.014,0
557,4365,47.361,0
558,4384,43.658,0
559,4405,41.782,0
560,4417,45.533,0
561,4408,56.497,0
562,4403,73.700,0
563,4414,94.221,0
564,4432,114.620,0
565,4457,132.531,0
566,4482,147.514,0
567,4486,160.793,0
568,4468,174.078,0
569,4429,188.103,0
570,4398,201.729,0
571,4403,212.281,0
572,4418,217.107,0
573,4459,215.387,0
574,4499,209.044,0
575,4538,202.261,0
576,4571,199.962,0
577,4582,206.018,0
578,4574,221.908,0
579,4545,246.186,0
580,4526,274.892,0
581,4505,302.794,0
582,4521,325.059,0
583,4533,338.749,0
584,4552,343.557,0
585,4584,341.536,0
586,4614,336.200,0
587,4642,331.544,0
588,4680,331.215,0
589,4703,337.933,0
590,4689,353.054,0
591,4672,376.031,0
592,4654,404.084,0
593,4659,432.711,0
594,4668,457.099,0
595,4677,473.754,0
596,4695,481.527,0
597,4713,481.741,0
598,4736,477.597,0
599,4774,473.196,0
600,4812,472.517,0
601,4837,478.590,0
602,4841,492.804,0
603,4828,514.433,0
604,4819,540.658,0
605,4841,567.412,0
606,4897,590.980,0
607,4971,609.752,0
608,4986,624.978,0
609,4956,639.655,0
610,4936,656.107,0
611,4937,674.233,0
612,4961,691.853,0
613,4991,706.525,0
614,5008,717.173,0
615,5024,724.491,0
616,5041,730.239,0
617,5068,736.290,0
618,5095,744.063,0
619,5122,754.417,0
620,5138,767.720,0
621,5156,783.878,0
622,5173,802.347,0
623,5190,822.236,0
624,5215,842.514,0
625,5224,862.221,0
626,5239,880.575,0
627,5240,896.946,0
628,5244,910.813,0
629,5272,921.840,0
630,5317,930.206,0
631,5360,937.029,0
632,5385,944.356,0
633,5393,954.387,0
634,5419,968.418,0
635,5434,986.313,0
636,5447,1006.790,0
637,5456,1028.026,0
638,5461,1048.174,0
639,5467,1065.683,0
640,5473,1079.475,0
641,5468,1088.994,0
642,5450,1094.081,0
643,5417,1094.671,0
644,5389,1090.486,0
645,5366,1081.021,0
646,5356,1065.916,0
647,5340,1045.443,0
648,5324,1020.681,0
649,5313,993.250,0
650,5304,964.879,0
651,5301,937.117,0
652,5264,911.165,0
653,5175,887.484,0
654,5078,865.015,0
655,5002,840.728,0
656,4948,810.380,0
657,4889,770.269,0
658,4823,718.700,0
659,4761,656.322,0
660,4702,585.560,0
661,4634,509.790,0
662,4572,432.550,0
663,4536,356.923,0
664,4497,285.314,0
665,4474,219.499,0
666,4479,160.737,0
667,4488,109.983,0
668,4471,68.106,0
669,4412,35.596,0
670,4350,11.717,0
671,4303,-6.076,0
672,4279,-21.645,0
673,4276,-38.734,0
674,4267,-59.551,0
675,4255,-84.235,0
676,4228,-111.340,0
677,4207,-138.840,0
678,4193,-164.923,0
679,4192,-188.233,0
680,4192,-207.722,0
681,4202,-222.525,0
682,4215,-232.045,0
683,4220,-236.128,0
684,4229,-235.192,0
685,4238,-230.170,0
686,4233,-222.223,0
687,4229,-212.462,0
688,4233,-201.831,0
689,4251,-191.034,0
690,4267,-180.417,0
691,4281,-169.948,0
692,4291,-159.403,0
693,4299,-148.613,0
694,4304,-137.547,0
695,4299,-126.261,0
696,4299,-114.851,0
697,4277,-103.549,0
698,4262,-92.926,0
699,4273,-84.013,0
700,4296,-77.908,0
701,4324,-74.987,0
702,4356,-74.319,0
703,4385,-73.705,0
704,4397,-70.303,0
705,4393,-61.645,0
706,4382,-46.715,0
707,4383,-26.531,0
708,4395,-3.827,0
709,4407,18.059,0
710,4413,36.406,0
711,4397,49.797,0
712,4383,58.046,0
713,4377,61.734,0
714,4378,61.835,0
715,4389,59.574,0
716,4399,56.328,0
717,4414,53.444,0
718,4436,52.064,0
719,4453,53.081,0
720,4451,57.169,0
721,4429,64.604,0
722,4401,74.834,0
723,4390,86.224,0
724,4393,96.402,0
725,4404,103.160,0
726,4421,105.343,0
727,4428,103.263,0
728,4427,98.476,0
729,4424,93.117,0
730,4437,89.190,0
731,4470,88.224,0
732,4511,91.359,0
733,4523,99.467,0
734,4517,112.834,0
735,4502,130.545,0
736,4484,150.247,0
737,4472,168.714,0
738,4481,182.959,0
739,4506,191.343,0
740,4529,194.209,0
741,4548,193.652,0
742,4572,192.559,0
743,4578,193.535,0
744,4562,198.129,0
745,4543,206.431,0
746,4528,217.096,0
747,4514,227.886,0
748,4504,236.450,0
749,4520,240.995,0
750,4545,240.786,0
751,4560,236.467,0
752,4565,229.899,0
753,4561,223.481,0
754,4549,219.283,0
755,4542,218.432,0
756,4543,220.912,0
757,4560,225.819,0
758,4582,231.914,0
759,4606,238.201,0
760,4615,244.274,0
761,4596,250.232,0
762,4575,256.217,0
763,4572,261.967,0
764,4585,266.888,0
765,4613,270.589,0
766,4654,273.376,0
767,4677,276.336,0
768,4680,280.898,0
769,4666,288.052,0
770,4629,297.679,0
771,4595,308.328,0
772,4582,317.578,0
773,4588,322.927,0
774,4607,322.821,0
775,4645,317.323,0
776,4683,308.212,0
777,4692,298.538,0
778,4680,291.644,0
779,4671,289.955,0
780,4662,294.183,0
781,4669,303.358,0
782,4682,315.439,0
783,4698,328.094,0
784,4713,339.328,0
785,4715,347.853,0
786,4717,353.224,0
787,4726,355.823,0
788,4732,356.777,0
789,4741,357.710,0
790,4747,360.194,0
791,4734,365.061,0
792,4718,371.845,0
793,4705,378.705,0
794,4693,383.084,0
795,4686,382.830,0
796,4691,377.168,0
797,4703,367.080,0
798,4735,355.019,0
799,4772,344.177,0
800,4803,337.631,0
801,4826,337.578,0
802,4842,344.845,0
803,4845,358.839,0
804,4841,377.871,0
805,4837,399.598,0
806,4856,421.490,0
807,4895,441.394,0
808,4928,458.123,0
809,4945,471.687,0
810,4947,482.899,0
811,4943,492.689,0
812,4941,501.634,0
813,4932,509.907,0
814,4933,517.407,0
815,4944,523.851,0
816,4969,528.905,0
817,5017,532.462,0
818,5061,535.067,0
819,5086,538.159,0
820,5095,543.747,0
821,5093,553.575,0
822,5080,568.241,0
823,5090,586.764,0
824,5117,606.860,0
825,5134,625.842,0
826,5142,641.535,0
827,5130,652.660,0
828,5105,658.726,0
829,5079,659.729,0
830,5061,655.947,0
831,5053,647.894,0
832,5045,636.317,0
833,5038,622.055,0
834,5025,605.797,0
835,4999,587.908,0
836,4953,568.401,0
837,4911,547.001,0
838,4881,523.316,0
839,4865,497.195,0
840,4849,469.029,0
841,4828,439.684,0
842,4811,410.066,0
843,4794,380.723,0
844,4768,351.851,0
845,4745,323.570,0
846,4734,296.211,0
847,4740,270.503,0
848,4753,247.614,0
849,4765,228.905,0
850,4770,215.424,0
851,4760,207.358,0
852,4731,203.751,0
853,4694,202.601,0
854,4679,201.353,0
855,4678,197.745,0
856,4688,190.681,0
857,4713,180.598,0
858,4749,169.214,0
859,4772,158.925,0
860,4782,152.112,0
861,4777,150.453,0
862,4766,154.460,0
863,4757,163.380,0
864,4755,175.471,0
865,4759,188.484,0
866,4760,200.153,0
867,4770,208.591,0
868,4783,212.631,0
869,4797,212.196,0
870,4813,208.517,0
871,4816,203.927,0
872,4813,201.123,0
873,4816,202.123,0
874,4846,207.535,0
875,4907,216.709,0
876,4992,228.771,0
877,5086,243.887,0
878,5200,263.982,0
879,5288,292.525,0
880,5364,333.383,0
881,5468,389.202,0
882,5621,460.413,0
883,5823,545.717,0
884,6113,643.805,0
885,6508,755.524,0
886,6957,885.713,0
887,7394,1043.574,0
888,7760,1240.426,0
889,7972,1484.905,0
890,7944,1776.953,0
891,7642,2102.431,0
892,7090,2430.285,0
893,6360,2714.100,0
894,5585,2898.939,0
895,4943,2932.832,0
896,4503,2780.604,0
897,4281,2435.986,0
898,4242,1927.339,0
899,4308,1314.142,0
900,4428,674.898,0
901,4556,90.240,0
902,4676,-373.588,0
903,4773,-676.421,0
904,4828,-808.756,0
905,4837,-789.433,0
906,4826,-658.206,0
907,4817,-465.399,0
908,4819,-260.859,0
909,4811,-84.534,0
910,4795,39.249,0
911,4769,102.832,0
912,4750,112.276,0
913,4741,82.189,0
914,4742,30.224,0
915,4757,-27.366,0
916,4767,-78.443,0
917,4783,-115.930,0
918,4799,-137.334,0
919,4807,-143.445,0
920,4809,-136.906,0
921,4800,-121.228,0
922,4797,-100.336,0
923,4804,-78.287,0
924,4821,-58.797,0
925,4838,-44.522,0
926,4865,-36.410,0
927,4874,-33.471,0
928,4880,-33.175,0
929,4884,-32.428,0
930,4884,-28.720,0
931,4901,-20.938,0
932,4927,-9.515,0
933,4950,4.114,0
934,4958,18.318,0
935,4951,31.826,0
936,4939,43.835,0
937,4937,53.902,0
938,4920,61.823,0
939,4922,67.479,0
940,4934,70.687,0
941,4951,71.296,0
942,4969,69.505,0
943,4988,66.137,0
944,4999,62.681,0
945,5010,61.046,0
946,5020,63.035,0
947,5035,69.769,0
948,5064,81.321,0
949,5095,96.777,0
950,5095,114.629,0
951,5073,133.060,0
952,5031,149.946,0
953,5000,162.880,0
954,4977,169.583,0
955,4973,168.601,0
956,4997,159.889,0
957,5033,145.067,0
958,5053,127.201,0
959,5106,110.153,0
960,5132,97.807,0
961,5135,93.417,0
962,5142,98.872,0
963,5145,114.072,0
964,5148,136.884,0
965,5171,163.691,0
966,5203,190.402,0
967,5239,213.685,0
968,5270,231.949,0
969,5277,245.615,0
970,5270,256.511,0
971,5269,266.726,0
972,5283,277.621,0
973,5298,289.500,0
974,5306,301.799,0
975,5295,313.365,0
976,5301,322.711,0
977,5319,328.516,0
978,5349,330.437,0
979,5369,329.718,0
980,5388,328.919,0
981,5415,330.865,0
982,5439,337.501,0
983,5460,349.305,0
984,5482,365.349,0
985,5493,383.851,0
986,5493,402.885,0
987,5500,420.882,0
988,5517,436.846,0
989,5552,450.463,0
990,5605,462.168,0
991,5660,473.143,0
992,5703,485.130,0
993,5738,499.975,0
994,5757,519.052,0
995,5764,542.800,0
996,5766,570.484,0
997,5759,600.191,0
998,5768,629.093,0
999,5790,654.055,0
1000,5817,672.554,0
1001,5838,683.535,0
1002,5854,687.744,0
1003,5858,687.384,0
1004,5861,685.302,0
1005,5874,684.071,0
1006,5902,685.369,0
1007,5935,689.864,0
1008,5956,697.429,0
1009,5965,707.360,0
1010,5953,718.477,0
1011,5928,729.189,0
1012,5903,737.637,0
1013,5878,741.977,0
1014,5866,740.725,0
1015,5886,733.114,0
1016,5902,719.439,0
1017,5895,701.166,0
1018,5870,680.444,0
1019,5809,659.132,0
1020,5730,637.873,0
1021,5639,615.608,0
1022,5556,589.701,0
1023,5499,556.726,0
1024,5460,513.715,0
1025,5413,459.377,0
1026,5377,394.693,0
1027,5325,322.681,0
1028,5248,247.559,0
1029,5171,173.506,0
1030,5113,103.489,0
1031,5064,38.769,0
1032,5019,-20.870,0
1033,4985,-76.567,0
1034,4967,-129.752,0
1035,4948,-181.394,0
1036,4912,-231.416,0
1037,4868,-278.723,0
1038,4819,-321.899,0
1039,4786,-360.059,0
1040,4782,-393.287,0
1041,4782,-422.393,0
1042,4797,-448.273,0
1043,4806,-471.332,0
1044,4801,-491.247,0
1045,4787,-507.154,0
1046,4770,-518.184,0
1047,4766,-524.000,0
1048,4777,-525.024,0
1049,4792,-522.294,0
1050,4801,-517.133,0
1051,4798,-510.910,0
1052,4783,-504.919,0
1053,4765,-500.267,0
1054,4756,-497.690,0
1055,4752,-497.325,0
1056,4760,-498.638,0
1057,4776,-500.619,0
1058,4791,-502.160,0
1059,4805,-502.392,0
1060,4804,-500.863,0
1061,4800,-497.522,0
1062,4812,-492.538,0
1063,4822,-485.984,0
1064,4816,-477.666,0
1065,4811,-467.445,0
1066,4808,-455.852,0
1067,4809,-444.320,0
1068,4816,-434.734,0
1069,4801,-428.615,0
1070,4782,-426.536,0
1071,4770,-428.107,0
1072,4771,-432.274,0
1073,4802,-437.587,0
1074,4848,-442.303,0
1075,4880,-444.440,0
1076,4909,-442.089,0
1077,4919,-433.933,0
1078,4907,-419.700,0
1079,4880,-400.379,0
1080,4865,-378.195,0
1081,4876,-356.159,0
1082,4913,-337.119,0
1083,4943,-322.724,0
1084,4964,-312.941,0
1085,4973,-306.397,0
1086,4970,-301.175,0
1087,4981,-295.488,0
1088,4991,-287.980,0
1089,4994,-277.778,0
1090,5009,-264.638,0
1091,5038,-249.112,0
1092,5057,-232.374,0
1093,5058,-215.788,0
1094,5045,-200.595,0
1095,5029,-187.800,0
1096,5023,-178.076,0
1097,5029,-171.583,0
1098,5037,-167.863,0
1099,5050,-166.009,0
1100,5063,-165.060,0
1101,5082,-164.303,0
1102,5097,-163.230,0
1103,5109,-161.256,0
1104,5116,-157.532,0
1105,5117,-151.096,0
1106,5119,-141.342,0
1107,5126,-128.512,0
1108,5126,-113.883,0
1109,5130,-99.511,0
1110,5141,-87.597,0
1111,5139,-79.670,0
1112,5148,-75.978,0
1113,5169,-75.381,0
1114,5201,-75.667,0
1115,5243,-74.116,0
1116,5264,-68.252,0
1117,5257,-56.701,0
1118,5236,-39.947,0
1119,5213,-20.478,0
1120,5209,-1.987,0
1121,5216,12.112,0
1122,5229,20.042,0
1123,5255,22.161,0
1124,5292,20.528,0
1125,5327,18.052,0
1126,5350,17.646,0
1127,5342,21.487,0
1128,5310,30.387,0
1129,5281,43.388,0
1130,5265,57.943,0
1131,5273,70.792,0
1132,5296,79.189,0
1133,5319,81.866,0
1134,5340,79.335,0
1135,5352,73.523,0
1136,5364,67.086,0
1137,5381,62.742,0
1138,5394,62.779,0
1139,5413,68.664,0
1140,5441,80.729,0
1141,5457,98.077,0
1142,5455,118.747,0
1143,5437,140.006,0
1144,5406,158.741,0
1145,5393,172.069,0
1146,5393,178.109,0
1147,5409,176.673,0
1148,5440,169.436,0
1149,5467,159.432,0
1150,5480,150.080,0
1151,5461,144.054,0
1152,5414,142.339,0
1153,5379,143.836,0
1154,5359,145.866,0
1155,5367,145.478,0
1156,5395,140.863,0
1157,5438,132.164,0
1158,5463,121.373,0
1159,5470,111.436,0
1160,5458,104.980,0
1161,5437,103.320,0
1162,5420,106.154,0
1163,5415,111.944,0
1164,5425,118.649,0
1165,5446,124.454,0
1166,5463,128.227,0
1167,5476,129.629,0
1168,5475,128.974,0
1169,5470,127.002,0
1170,5473,124.692,0
1171,5483,123.152,0
1172,5503,123.521,0
1173,5530,126.750,0
1174,5561,133.311,0
1175,5577,143.033,0
1176,5562,155.069,0
1177,5511,167.858,0
1178,5464,179.083,0
1179,5450,185.997,0
1180,5459,186.367,0
1181,5477,179.558,0
1182,5502,166.904,0
1183,5530,151.173,0
1184,5556,135.654,0
1185,5567,123.420,0
1186,5552,116.795,0
1187,5533,116.878,0
1188,5503,123.152,0
1189,5488,133.428,0
1190,5487,144.290,0
1191,5492,152.037,0
1192,5502,153.807,0
1193,5516,148.467,0
1194,5518,137.001,0
1195,5525,122.238,0
1196,5541,107.993,0
1197,5558,97.988,0
1198,5597,94.897,0
1199,5632,99.808,0
1200,5661,112.220,0
1201,5678,130.425,0
1202,5672,152.053,0
1203,5649,174.558,0
1204,5635,195.524,0
1205,5641,212.909,0
1206,5669,225.422,0
1207,5683,232.844,0
1208,5680,235.887,0
1209,5682,235.570,0
1210,5691,232.758,0
1211,5718,228.340,0
1212,5765,223.851,0
1213,5786,221.780,0
1214,5801,224.969,0
1215,5833,235.298,0
1216,5864,252.737,0
1217,5894,275.486,0
1218,5914,300.867,0
1219,5924,326.318,0
1220,5914,350.002,0
1221,5888,370.813,0
1222,5857,387.865,0
1223,5836,399.934,0
1224,5809,405.337,0
1225,5790,402.334,0
1226,5767,389.792,0
1227,5732,367.766,0
1228,5705,337.715,0
1229,5692,302.278,0
1230,5678,264.806,0
1231,5669,228.699,0
1232,5650,196.575,0
1233,5613,169.538,0
1234,5570,146.831,0
1235,5520,126.122,0
1236,5479,104.386,0
1237,5454,79.101,0
1238,5441,49.223,0
1239,5434,15.556,0
1240,5437,-19.670,0
1241,5451,-53.649,0
1242,5456,-83.779,0
1243,5447,-108.139,0
1244,5436,-125.782,0
1245,5432,-136.783,0
1246,5444,-141.966,0
1247,5471,-142.395,0
1248,5508,-138.907,0
1249,5529,-131.958,0
1250,5535,-121.874,0
1251,5532,-109.316,0
1252,5512,-95.542,0
1253,5489,-82.282,0
1254,5469,-71.382,0
1255,5470,-64.379,0
1256,5488,-62.087,0
1257,5511,-64.283,0
1258,5529,-69.704,0
1259,5539,-76.415,0
1260,5528,-82.406,0
1261,5512,-86.167,0
1262,5498,-87.079,0
1263,5500,-85.441,0
1264,5509,-82.144,0
1265,5534,-78.223,0
1266,5550,-74.476,0
1267,5565,-71.278,0
1268,5590,-68.538,0
1269,5635,-65.559,0
1270,5716,-60.715,0
1271,5815,-51.139,0
1272,5916,-32.915,0
1273,6016,-2.030,0
1274,6121,44.269,0
1275,6265,106.615,0
1276,6455,183.942,0
1277,6702,275.109,0
1278,7036,380.880,0
1279,7453,505.377,0
1280,7910,656.374,0
1281,8336,843.895,0
1282,8664,1076.834,0
1283,8826,1358.244,0
1284,8776,1680.757,0
1285,8477,2023.680,0
1286,7927,2352.779,0
1287,7202,2623.088,0
1288,6462,2785.009,0
1289,5827,2793.709,0
1290,5362,2620.475,0
1291,5123,2262.697,0
1292,5089,1748.753,0
1293,5185,1135.610,0
1294,5335,499.034,0
1295,5473,-81.547,0
1296,5559,-539.495,0
1297,5589,-834.192,0
1298,5584,-957.496,0
1299,5555,-932.029,0
1300,5520,-802.468,0
1301,5475,-622.957,0
1302,5417,-444.486,0
1303,5376,-305.377,0
1304,5352,-226.423,0
1305,5349,-210.651,0
1306,5371,-246.822,0
1307,5404,-315.178,0
1308,5431,-393.717,0
1309,5443,-463.555,0
1310,5434,-512.398,0
1311,5409,-535.721,0
1312,5381,-535.856,0
1313,5371,-519.667,0
1314,5380,-495.644,0
1315,5393,-471.331,0
1316,5404,-451.819,0
1317,5407,-439.499,0
1318,5408,-434.629,0
1319,5393,-436.062,0
1320,5385,-441.843,0
1321,5383,-449.636,0
1322,5399,-457.032,0
1323,5439,-461.778,0
1324,5486,-461.964,0
1325,5508,-456.243,0
1326,5503,-444.236,0
1327,5476,-427.010,0
1328,5431,-407.191,0
1329,5396,-388.440,0
1330,5370,-374.473,0
1331,5361,-368.028,0
1332,5369,-370.209,0
1333,5377,-380.383,0
1334,5395,-396.496,0
1335,5412,-415.563,0
1336,5425,-434.106,0
1337,5441,-448.572,0
1338,5461,-455.835,0
1339,5489,-453.744,0
1340,5490,-441.638,0
1341,5479,-420.828,0
1342,5459,-394.801,0
1343,5439,-368.667,0
1344,5422,-347.775,0
1345,5417,-336.018,0
1346,5422,-334.604,0
1347,5436,-341.804,0
1348,5465,-353.733,0
1349,5498,-365.706,0
1350,5522,-373.583,0
1351,5531,-374.726,0
1352,5525,-368.436,0
1353,5515,-355.823,0
1354,5513,-339.186,0
1355,5531,-321.124,0
1356,5569,-303.638,0
1357,5609,-287.573,0
1358,5630,-272.640,0
1359,5624,-258.062,0
1360,5597,-243.494,0
1361,5582,-229.586,0
1362,5578,-217.713,0
1363,5583,-209.084,0
1364,5600,-203.972,0
1365,5633,-201.560,0
1366,5666,-200.285,0
1367,5697,-198.324,0
1368,5721,-194.025,0
1369,5734,-186.147,0
1370,5740,-173.979,0
1371,5750,-157.413,0
1372,5758,-137.005,0
1373,5771,-114.001,0
1374,5793,-90.245,0
1375,5831,-67.805,0
1376,5855,-48.286,0
1377,5858,-32.255,0
1378,5854,-19.220,0
1379,5856,-8.122,0
1380,5872,2.169,0
1381,5906,12.620,0
1382,5952,24.025,0
1383,5996,37.069,0
1384,6027,52.319,0
1385,6051,70.116,0
1386,6066,90.490,0
1387,6082,113.194,0
1388,6108,137.825,0
1389,6151,163.950,0
1390,6201,191.225,0
1391,6231,219.389,0
1392,6249,248.032,0
1393,6254,276.280,0
1394,6249,302.768,0
1395,6247,326.003,0
1396,6240,344.866,0
1397,6249,358.899,0
1398,6267,368.298,0
1399,6285,373.726,0
1400,6296,376.069,0
1401,6299,376.180,0
1402,6296,374.759,0
1403,6302,372.426,0
1404,6313,369.949,0
1405,6328,368.382,0
1406,6342,368.867,0
1407,6339,372.102,0
1408,6325,377.721,0
1409,6305,384.019,0
1410,6268,388.309,0
1411,6223,387.736,0
1412,6176,380.081,0
1413,6131,364.209,0
1414,6099,340.113,0
1415,6069,308.672,0
1416,6031,271.276,0
1417,5995,229.420,0
1418,5950,184.443,0
1419,5893,137.505,0
1420,5826,89.614,0
1421,5753,41.489,0
1422,5685,-6.702,0
1423,5636,-55.470,0
1424,5593,-105.774,0
1425,5552,-158.478,0
1426,5503,-213.858,0
1427,5440,-271.397,0
1428,5373,-329.968,0
1429,5324,-388.200,0
1430,5287,-444.747,0
1431,5267,-498.358,0
1432,5254,-547.915,0
1433,5241,-592.544,0
1434,5225,-631.739,0
1435,5204,-665.399,0
1436,5182,-693.713,0
1437,5165,-716.972,0
1438,5160,-735.415,0
1439,5158,-749.206,0
1440,5169,-758.548,0
1441,5174,-763.862,0
1442,5172,-765.883,0
1443,5169,-765.607,0
1444,5163,-764.059,0
1445,5165,-761.927,0
1446,5160,-759.299,0
1447,5149,-755.787,0
1448,5132,-751.086,0
1449,5116,-745.612,0
1450,5111,-740.702,0
1451,5115,-738.097,0
1452,5121,-738.970,0
1453,5125,-743.127,0
1454,5129,-748.903,0
1455,5136,-753.773,0
1456,5163,-755.270,0
1457,5197,-751.664,0
1458,5215,-742.206,0
1459,5221,-727.152,0
1460,5195,-707.791,0
1461,5161,-686.404,0
1462,5137,-665.982,0
1463,5126,-649.534,0
1464,5145,-639.165,0
1465,5182,-635.303,0
1466,5223,-636.409,0
1467,5251,-639.379,0
1468,5255,-640.548,0
1469,5243,-636.944,0
1470,5219,-627.273,0
1471,5193,-612.264,0
1472,5180,-594.349,0
1473,5187,-576.827,0
1474,5205,-562.758,0
1475,5235,-553.961,0
1476,5259,-550.430,0
1477,5266,-550.384,0
1478,5268,-550.956,0
1479,5273,-549.203,0
1480,5275,-542.980,0
1481,5284,-531.466,0
1482,5302,-515.283,0
1483,5327,-496.167,0
1484,5349,-476.258,0
1485,5365,-457.293,0
1486,5363,-440.111,0
1487,5360,-424.651,0
1488,5362,-410.337,0
1489,5371,-396.537,0
1490,5391,-382.857,0
1491,5412,-369.234,0
1492,5412,-355.900,0
1493,5395,-343.366,0
1494,5374,-332.467,0
1495,5362,-324.200,0
1496,5355,-319.286,0
1497,5359,-317.732,0
1498,5367,-318.764,0
1499,5375,-321.161,0
1500,5380,-323.760,0
1501,5385,-325.806,0
1502,5364,-327.000,0
1503,5352,-327.390,0
1504,5351,-327.198,0
1505,5369,-326.528,0
1506,5401,-325.042,0
1507,5424,-321.901,0
1508,5436,-316.143,0
1509,5455,-307.264,0
1510,5477,-295.461,0
1511,5479,-281.315,0
1512,5462,-265.416,0
1513,5449,-248.446,0
1514,5439,-231.495,0
1515,5434,-216.137,0
1516,5437,-204.153,0
1517,5445,-197.030,0
1518,5451,-195.382,0
1519,5449,-198.595,0
1520,5448,-204.893,0
1521,5458,-211.815,0
1522,5481,-216.800,0
1523,5506,-217.695,0
1524,5510,-213.198,0
1525,5490,-203.343,0
1526,5460,-189.857,0
1527,5428,-175.962,0
1528,5407,-165.419,0
1529,5405,-161.182,0
1530,5416,-164.291,0
1531,5448,-173.497,0
1532,5493,-185.677,0
1533,5538,-196.727,0
1534,5571,-202.584,0
1535,5587,-200.183,0
1536,5595,-188.140,0
1537,5593,-166.991,0
1538,5582,-138.991,0
1539,5570,-107.672,0
1540,5576,-77.229,0
1541,5593,-51.656,0
1542,5597,-33.750,0
1543,5574,-24.521,0
1544,5533,-23.413,0
1545,5508,-29.070,0
1546,5508,-39.884,0
1547,5527,-53.977,0
1548,5551,-69.002,0
1549,5566,-82.329,0
1550,5569,-91.719,0
1551,5572,-96.025,0
1552,5572,-95.397,0
1553,5566,-90.868,0
1554,5563,-83.755,0
1555,5565,-75.259,0
1556,5571,-66.361,0
1557,5577,-57.899,0
1558,5577,-50.674,0
1559,5568,-45.485,0
1560,5549,-43.039,0
1561,5521,-43.803,0
1562,5513,-47.864,0
1563,5521,-54.775,0
1564,5549,-63.381,0
1565,5572,-71.857,0
1566,5579,-78.155,0
1567,5565,-80.806,0
1568,5528,-79.666,0
1569,5490,-76.166,0
1570,5472,-72.837,0
1571,5477,-72.214,0
1572,5491,-75.666,0
1573,5508,-82.844,0
1574,5523,-92.039,0
1575,5545,-101.023,0
1576,5564,-107.742,0
1577,5574,-110.576,0
1578,5581,-108.397,0
1579,5579,-100.686,0
1580,5579,-87.763,0
1581,5577,-70.977,0
1582,5573,-52.653,0
1583,5574,-35.693,0
1584,5582,-22.831,0
1585,5577,-15.764,0
1586,5569,-14.605,0
1587,5567,-17.997,0
1588,5570,-23.717,0
1589,5583,-29.399,0
1590,5598,-33.155,0
1591,5617,-33.930,0
1592,5628,-31.536,0
1593,5605,-26.468,0
1594,5554,-19.840,0
1595,5507,-13.502,0
1596,5470,-9.952,0
1597,5430,-11.784,0
1598,5410,-20.989,0
1599,5424,-38.415,0
1600,5465,-63.234,0
1601,5529,-92.444,0
1602,5593,-120.813,0
1603,5660,-141.660,0
1604,5730,-148.347,0
1605,5765,-136.021,0
1606,5761,-103.191,0
1607,5763,-52.783,0
1608,5800,8.197,0
1609,5827,70.810,0
1610,5808,127.023,0
1611,5756,171.371,0
1612,5658,200.802,0
1613,5584,213.618,0
1614,5616,208.991,0
1615,5748,188.108,0
1616,5894,156.278,0
1617,5997,123.575,0
1618,6072,102.449,0
1619,6113,103.506,0
1620,6126,131.997,0
1621,6122,186.475,0
1622,6121,259.604,0
1623,6075,340.328,0
1624,5992,416.257,0
1625,5969,475.638,0
1626,5994,509.502,0
1627,6043,514.274,0
1628,6061,493.405,0
1629,6022,456.256,0
1630,5987,414.348,0
1631,6007,377.239,0
1632,6068,350.539,0
1633,6046,336.259,0
1634,5929,333.378,0
1635,5777,337.294,0
1636,5665,339.558,0
1637,5621,329.973,0
1638,5628,300.786,0
1639,5738,250.598,0
1640,5887,186.022,0
1641,5932,120.252,0
1642,5893,68.359,0
1643,5777,40.866,0
1644,5645,39.052,0
1645,5519,54.554,0
1646,5411,72.995,0
1647,5359,79.371,0
1648,5386,62.951,0
1649,5468,20.536,0
1650,5523,-42.614,0
1651,5514,-114.774,0
1652,5439,-182.306,0
1653,5325,-234.842,0
1654,5311,-268.523,0
1655,5318,-285.655,0
1656,5320,-291.709,0
1657,5394,-292.296,0
1658,5567,-291.088,0
1659,5778,-287.933,0
1660,5931,-277.634,0
1661,5908,-251.485,0
1662,5763,-202.316,0
1663,5514,-130.743,0
1664,5312,-48.548,0
1665,5242,23.629,0
1666,5370,64.128,0
1667,5603,60.332,0
1668,5815,15.659,0
1669,5897,-50.770,0
1670,5870,-112.071,0
1671,5777,-144.814,0
1672,5693,-137.699,0
1673,5668,-94.044,0
1674,5671,-28.238,0
1675,5739,41.041,0
1676,5822,97.632,0
1677,5874,132.581,0
1678,5912,145.602,0
1679,5913,143.433,0
1680,6019,136.548,0
1681,6211,136.277,0
1682,6476,153.437,0
1683,6783,197.797,0
1684,7156,277.438,0
1685,7547,398.248,0
1686,7881,563.887,0
1687,8228,775.664,0
1688,8500,1031.955,0
1689,8638,1327.117,0
1690,8574,1649.450,0
1691,8260,1978.300,0
1692,7712,2281.933,0
1693,6966,2518.375,0
1694,6199,2640.674,0
1695,5508,2606.574,0
1696,4994,2390.381,0
1697,4692,1992.909,0
1698,4561,1445.364,0
1699,4626,805.301,0
1700,4803,146.007,0
1701,4944,-457.353,0
1702,5023,-941.801,0
1703,5068,-1267.915,0
1704,5082,-1425.403,0
1705,5054,-1431.531,0
1706,4975,-1324.178,0
1707,4893,-1152.474,0
1708,4809,-967.147,0
1709,4732,-811.743,0
1710,4661,-715.920,0
1711,4575,-692.047,0
1712,4518,-735.727,0
1713,4477,-829.750,0
1714,4477,-950.058,0
1715,4502,-1072.057,0
1716,4517,-1175.859,0
1717,4485,-1249.636,0
1718,4449,-1290.755,0
1719,4418,-1304.445,0
1720,4381,-1300.302,0
1721,4303,-1288.317,0
1722,4194,-1276.545,0
1723,4110,-1271.038,0
1724,4091,-1276.551,0
1725,4161,-1296.171,0
1726,4279,-1329.498,0
1727,4347,-1370.963,0
1728,4333,-1410.470,0
1729,4216,-1437.113,0
1730,4054,-1444.324,0
1731,3922,-1433.519,0
1732,3818,-1414.089,0
1733,3754,-1399.828,0
1734,3708,-1403.881,0
1735,3667,-1434.414,0
1736,3607,-1492.394,0
1737,3562,-1571.804,0
1738,3489,-1661.837,0
1739,3362,-1750.370,0
1740,3216,-1828.079,0
1741,3095,-1891.772,0
1742,2985,-1945.110,0
1743,2896,-1996.271,0
1744,2835,-2053.912,0
1745,2786,-2123.250,0
1746,2774,-2203.718,0
1747,2841,-2288.751,0
1748,2873,-2367.436,0
1749,2863,-2427.809,0
1750,2879,-2461.168,0
1751,2877,-2465.223,0
1752,2849,-2444.295,0
1753,2853,-2407.041,0
1754,2898,-2362.985,0
1755,2992,-2318.977,0
1756,3160,-2276.742,0
1757,3323,-2232.460,0
1758,3409,-2178.729,0
1759,3440,-2108.565,0
1760,3427,-2019.618,0
1761,3430,-1916.037,0
1762,3501,-1806.756,0
1763,3629,-1701.150,0
1764,3773,-1604.574,0
1765,3883,-1516.488,0
1766,3948,-1432.145,0
1767,3892,-1346.614,0
1768,3835,-1258.786,0
1769,3855,-1172.834,0
1770,3944,-1095.684,0
1771,4037,-1032.134,0
1772,4109,-981.539,0
1773,4190,-938.330,0
1774,4271,-895.149,0
1775,4367,-845.901,0
1776,4433,-787.214,0
1777,4493,-718.442,0
1778,4519,-641.029,0
1779,4504,-557.927,0
1780,4444,-473.499,0
1781,4352,-393.846,0
1782,4314,-326.738,0
1783,4350,-280.056,0
1784,4453,-258.555,0
1785,4577,-260.589,0
1786,4635,-277.169,0
1787,4635,-294.690,0
1788,4655,-300.100,0
1789,4653,-285.468,0
1790,4642,-249.845,0
1791,4629,-198.611,0
1792,4598,-141.310,0
1793,4564,-88.786,0
1794,4551,-50.320,0
1795,4557,-31.285,0
1796,4619,-31.704,0
1797,4734,-46.021,0
1798,4881,-64.113,0
1799,4984,-73.580,0
1800,5022,-63.249,0
1801,5034,-26.999,0
1802,5089,34.142,0
1803,5205,113.284,0
1804,5376,201.855,0
1805,5607,294.147,0
1806,5857,389.865,0
1807,6057,493.712,0
1808,6152,612.189,0
1809,6099,748.788,0
1810,5956,899.581,0
1811,5844,1051.671,0
1812,5824,1186.252,0
1813,5880,1285.499,0
1814,6065,1339.861,0
1815,6315,1352.403,0
1816,6511,1338.586,0
1817,6528,1321.131,0
1818,6360,1321.032,0
1819,6147,1348.345,0
1820,6023,1397.921,0
1821,5989,1452.879,0
1822,5998,1493.406,0
1823,6013,1505.148,0
1824,6041,1483.223,0
1825,6085,1431.868,0
1826,6101,1361.829,0
1827,6145,1287.152,0
1828,6182,1222.074,0
1829,6120,1178.121,0
1830,6038,1161.045,0
1831,5960,1168.342,0
1832,5877,1189.366,0
1833,5773,1208.587,0
1834,5590,1210.228,0
1835,5414,1182.054,0
1836,5294,1117.604,0
1837,5279,1017.524,0
1838,5389,890.328,0
1839,5598,752.024,0
1840,5891,624.103,0
1841,6145,529.918,0
1842,6348,489.939,0
1843,6484,516.933,0
1844,6522,612.612,0
1845,6465,766.662,0
1846,6417,958.111,0
1847,6357,1159.035,0
1848,6299,1340.116,0
1849,6242,1476.459,0
1850,6206,1552.098,0
1851,6184,1562.579,0
1852,6174,1515.289,0
1853,6194,1427.371,0
1854,6216,1321.527,0
1855,6245,1220.626,0
1856,6278,1142.499,0
1857,6302,1096.443,0
1858,6329,1082.535,0
1859,6359,1093.756,0
1860,6376,1119.898,0
1861,6386,1151.507,0
1862,6406,1182.288,0
1863,6448,1209.575,0
1864,6563,1233.555,0
1865,6664,1256.262,0
1866,6707,1280.551,0
1867,6694,1308.610,0
1868,6620,1340.304,0
1869,6495,1372.338,0
1870,6425,1398.750,0
1871,6406,1412.795,0
1872,6422,1409.619,0
1873,6396,1388.080,0
1874,6371,1350.454,0
1875,6335,1300.667,0
1876,6294,1242.855,0
1877,6300,1181.128,0
1878,6360,1120.275,0
1879,6439,1066.523,0
1880,6500,1027.152,0
1881,6548,1008.395,0
1882,6589,1012.758,0
1883,6620,1037.680,0
1884,6635,1076.462,0
1885,6626,1120.747,0
1886,6609,1163.049,0
1887,6602,1198.261,0
1888,6605,1223.922,0
1889,6605,1239.569,0
1890,6588,1245.619,0
1891,6535,1242.262,0
1892,6486,1228.908,0
1893,6441,1204.613,0
1894,6381,1169.270,0
1895,6393,1124.665,0
1896,6481,1074.935,0
1897,6555,1026.482,0
1898,6607,986.843,0
1899,6611,962.227,0
1900,6591,954.973,0
1901,6554,962.631,0
1902,6511,979.130,0
1903,6492,997.193,0
1904,6489,1010.695,0
1905,6457,1015.941,0
1906,6438,1011.442,0
1907,6429,996.838,0
1908,6355,972.169,0
1909,6275,937.670,0
1910,6234,893.850,0
1911,6265,842.223,0
1912,6321,786.575,0
1913,6428,733.487,0
1914,6531,691.253,0
1915,6594,667.568,0
1916,6646,667.022,0
1917,6641,689.557,0
1918,6603,730.508,0
1919,6542,781.839,0
1920,6458,833.826,0
1921,6414,876.710,0
1922,6422,902.300,0
1923,6439,905.666,0
1924,6445,886.336,0
1925,6448,848.215,0
1926,6450,798.396,0
1927,6489,745.631,0
1928,6553,699.040,0
1929,6612,666.933,0
1930,6637,655.277,0
1931,6649,665.851,0
1932,6654,695.147,0
1933,6615,735.123,0
1934,6572,775.541,0
1935,6568,806.898,0
1936,6608,823.210,0
1937,6668,823.871,0
1938,6713,813.529,0
1939,6734,799.706,0
1940,6763,789.355,0
1941,6776,786.374,0
1942,6778,791.183,0
1943,6752,801.784,0
1944,6729,815.137,0
1945,6735,828.184,0
1946,6753,838.538,0
1947,6753,844.790,0
1948,6752,846.241,0
1949,6758,842.388,0
1950,6753,832.909,0
1951,6731,818.169,0
1952,6716,799.570,0
1953,6778,779.513,0
1954,6909,761.481,0
1955,7049,750.348,0
1956,7132,751.927,0
1957,7155,770.957,0
1958,7117,808.398,0
1959,6993,859.764,0
1960,6841,915.295,0
1961,6732,961.913,0
1962,6643,986.556,0
1963,6602,979.826,0
1964,6606,938.486,0
1965,6645,866.220,0
1966,6697,772.897,0
1967,6756,672.659,0
1968,6800,581.170,0
1969,6806,512.413,0
1970,6758,475.404,0
1971,6701,471.539,0
1972,6661,493.820,0
1973,6650,528.923,0
1974,6685,561.687,0
1975,6760,580.340,0
1976,6842,580.460,0
1977,6892,566.021,0
1978,6916,546.975,0
1979,6909,534.510,0
1980,6918,536.317,0
1981,6948,554.042,0
1982,6967,583.746,0
1983,6934,618.298,0
1984,6858,649.804,0
1985,6797,671.178,0
1986,6776,677.299,0
1987,6795,666.253,0
1988,6836,640.159,0
1989,6901,604.754,0
1990,6959,567.784,0
1991,6972,536.857,0
1992,6949,517.379,0
1993,6941,511.213,0
1994,6963,516.810,0
1995,6993,530.791,0
1996,7036,549.769,0
1997,7095,571.278,0
1998,7174,593.864,0
1999,7244,616.997,0
2000,7296,641.040,0
2001,7356,667.110,0
2002,7410,696.825,0
2003,7428,731.875,0
2004,7449,773.155,0
2005,7468,819.692,0
2006,7482,868.209,0
2007,7509,913.771,0
2008,7534,951.305,0
2009,7562,977.403,0
2010,7622,991.679,0
2011,7714,997.272,0
2012,7824,1000.410,0
2013,7929,1008.950,0
2014,8028,1030.118,0
2015,8096,1068.226,0
2016,8141,1123.330,0
2017,8181,1191.340,0
2018,8225,1265.549,0
2019,8238,1338.863,0
2020,8259,1405.540,0
2021,8332,1461.888,0
2022,8439,1506.573,0
2023,8582,1541.005,0
2024,8807,1569.639,0
2025,9120,1600.207,0
2026,9491,1643.932,0
2027,9882,1714.988,0
2028,10236,1828.211,0
2029,10485,1994.965,0
2030,10587,2218.126,0
2031,10546,2487.986,0
2032,10392,2781.088,0
2033,10176,3063.251,0
2034,9942,3296.415,0
2035,9700,3447.188,0
2036,9491,3494.239,0
2037,9318,3432.344,0
2038,9158,3272.355,0
2039,9036,3037.613,0
2040,8999,2758.383,0
2041,9023,2466.514,0
2042,9107,2191.592,0
2043,9210,1958.347,0
2044,9293,1784.566,0
2045,9345,1679.214,0
2046,9375,1641.225,0
2047,9369,1659.859,0
2048,9264,1716.851,0
2049,9029,1789.292,0
2050,8745,1852.175,0
2051,8484,1881.033,0
2052,8286,1855.732,0
2053,8136,1764.972,0
2054,8049,1609.396,0
2055,8001,1401.650,0
2056,7961,1163.332,0
2057,7901,919.859,0
2058,7812,694.661,0
2059,7721,504.329,0
2060,7636,356.088,0
2061,7552,248.078,0
2062,7481,171.707,0
2063,7440,114.979,0
2064,7417,65.956,0
2065,7396,15.673,0
2066,7376,-40.223,0
2067,7381,-101.389,0
2068,7404,-163.781,0
2069,7460,-221.136,0
2070,7526,-266.602,0
2071,7595,-294.340,0
2072,7672,-300.868,0
2073,7774,-285.656,0
2074,7910,-250.525,0
2075,8155,-197.859,0
2076,8528,-127.999,0
2077,8939,-36.761,0
2078,9321,84.969,0
2079,9573,248.020,0
2080,9658,458.749,0
2081,9481,712.417,0
2082,8982,988.597,0
2083,8195,1249.887,0
2084,7243,1444.740,0
2085,6367,1515.371,0
2086,5675,1410.798,0
2087,5252,1102.159,0
2088,5096,594.885,0
2089,5132,-67.366,0
2090,5246,-809.197,0
2091,5410,-1538.940,0
2092,5510,-2168.485,0
2093,5549,-2631.721,0
2094,5554,-2896.877,0
2095,5555,-2969.840,0
2096,5541,-2888.175,0
2097,5518,-2708.650,0
2098,5489,-2492.597,0
2099,5449,-2292.968,0
2100,5389,-2145.701,0
2101,5316,-2066.642,0
2102,5285,-2053.620,0
2103,5293,-2091.761,0
2104,5318,-2159.803,0
2105,5351,-2235.959,0
2106,5378,-2302.472,0
2107,5373,-2348.174,0
2108,5367,-2368.895,0
2109,5352,-2366.159,0
2110,5310,-2345.025,0
2111,5318,-2312.099,0
2112,5348,-2274.060,0
2113,5373,-2236.491,0
2114,5415,-2203.190,0
2115,5426,-2176.022,0
2116,5396,-2155.131,0
2117,5369,-2139.465,0
2118,5381,-2127.313,0
2119,5415,-2116.388,0
2120,5444,-2103.807,0
2121,5434,-2086.842,0
2122,5420,-2064.457,0
2123,5410,-2038.414,0
2124,5398,-2012.701,0
2125,5364,-1991.573,0
2126,5355,-1977.616,0
2127,5368,-1970.795,0
2128,5393,-1968.568,0
2129,5427,-1966.922,0
2130,5470,-1961.921,0
2131,5492,-1951.003,0
2132,5455,-1933.582,0
2133,5405,-1911.145,0
2134,5357,-1886.862,0
2135,5302,-1864.602,0
2136,5268,-1847.798,0
2137,5279,-1838.725,0
2138,5322,-1838.066,0
2139,5366,-1844.564,0
2140,5363,-1855.122,0
2141,5304,-1865.796,0
2142,5257,-1873.388,0
2143,5239,-1876.479,0
2144,5238,-1875.150,0
2145,5253,-1870.046,0
2146,5280,-1861.840,0
2147,5323,-1851.207,0
2148,5343,-1838.804,0
2149,5307,-1825.159,0
2150,5269,-1810.786,0
2151,5221,-1796.437,0
2152,5198,-1783.072,0
2153,5205,-1771.547,0
2154,5251,-1762.244,0
2155,5304,-1754.767,0
2156,5337,-1747.860,0
2157,5351,-1739.730,0
2158,5351,-1728.580,0
2159,5341,-1712.997,0
2160,5329,-1692.156,0
2161,5337,-1666.020,0
2162,5366,-1635.517,0
2163,5408,-1602.454,0
2164,5456,-1569.045,0
2165,5487,-1537.211,0
2166,5510,-1507.882,0
2167,5523,-1480.621,0
2168,5534,-1453.724,0
2169,5544,-1424.877,0
2170,5570,-1392.216,0
2171,5577,-1355.338,0
2172,5599,-1315.817,0
2173,5642,-1276.799,0
2174,5688,-1241.519,0
2175,5721,-1211.451,0
2176,5712,-1185.432,0
2177,5721,-1160.465,0
2178,5733,-1133.481,0
2179,5765,-1102.814,0
2180,5784,-1068.768,0
2181,5757,-1033.475,0
2182,5692,-1000.516,0
2183,5618,-974.388,0
2184,5555,-959.510,0
2185,5528,-958.770,0
2186,5548,-972.196,0
2187,5630,-996.359,0
2188,5725,-1024.711,0
2189,5815,-1048.872,0
2190,5866,-1060.636,0
2191,5871,-1054.145,0
2192,5858,-1027.472,0
2193,5847,-983.005,0
2194,5861,-926.473,0
2195,5897,-865.086,0
2196,5930,-805.650,0
2197,5956,-753.363,0
2198,5951,-711.457,0
2199,5916,-681.382,0
2200,5875,-663.166,0
2201,5848,-655.673,0
2202,5844,-656.669,0
2203,5857,-662.969,0
2204,5877,-671.003,0
2205,5892,-677.733,0
2206,5875,-681.522,0
2207,5811,-682.585,0
2208,5739,-682.931,0
2209,5648,-685.744,0
2210,5573,-694.350,0
2211,5528,-711.262,0
2212,5495,-737.584,0
2213,5461,-772.949,0
2214,5411,-815.973,0
2215,5332,-864.960,0
2216,5230,-918.450,0
2217,5123,-975.418,0
2218,5017,-1035.169,0
2219,4940,-1097.123,0
2220,4891,-1160.666,0
2221,4835,-1225.111,0
2222,4776,-1289.860,0
2223,4698,-1354.682,0
2224,4611,-1419.750,0
2225,4525,-1485.263,0
2226,4456,-1550.852,0
2227,4411,-1615.161,0
2228,4397,-1675.916,0
2229,4401,-1730.449,0
2230,4408,-1776.434,0
2231,4399,-1812.492,0
2232,4357,-1838.497,0
2233,4289,-1855.595,0
2234,4225,-1865.987,0
2235,4178,-1872.449,0
2236,4158,-1877.638,0
2237,4157,-1883.514,0
2238,4159,-1891.095,0
2239,4155,-1900.584,0
2240,4136,-1911.613,0
2241,4095,-1923.406,0
2242,4047,-1934.885,0
2243,4017,-1944.834,0
2244,4011,-1952.077,0
2245,4035,-1955.607,0
2246,4063,-1954.688,0
2247,4081,-1949.028,0
2248,4084,-1938.934,0
2249,4064,-1925.295,0
2250,4034,-1909.292,0
2251,4010,-1892.001,0
2252,3999,-1874.120,0
2253,3995,-1855.975,0
2254,3997,-1837.859,0
2255,4004,-1820.462,0
2256,4010,-1804.931,0
2257,3997,-1792.392,0
2258,3969,-1783.275,0
2259,3933,-1776.991,0
2260,3900,-1772.167,0
2261,3901,-1767.259,0
2262,3914,-1761.112,0
2263,3934,-1753.202,0
2264,3947,-1743.618,0
2265,3939,-1732.872,0
2266,3916,-1721.576,0
2267,3882,-1710.143,0
2268,3851,-1698.651,0
2269,3841,-1686.939,0
2270,3845,-1674.852,0
2271,3860,-1662.466,0
2272,3866,-1650.199,0
2273,3853,-1638.750,0
2274,3824,-1628.902,0
2275,3787,-1621.213,0
2276,3751,-1615.726,0
2277,3727,-1611.892,0
2278,3726,-1608.810,0
2279,3725,-1605.635,0
2280,3726,-1601.982,0
2281,3722,-1598.108,0
2282,3705,-1594.677,0
2283,3682,-1592.199,0
2284,3656,-1590.510,0
2285,3633,-1588.663,0
2286,3626,-1585.326,0
2287,3634,-1579.454,0
2288,3643,-1570.795,0
2289,3653,-1559.989,0
2290,3647,-1548.224,0
2291,3631,-1536.636,0
2292,3602,-1525.778,0
2293,3585,-1515.445,0
2294,3588,-1504.867,0
2295,3608,-1493.063,0
2296,3641,-1479.189,0
2297,3674,-1462.779,0
2298,3705,-1443.737,0
2299,3731,-1422.062,0
2300,3743,-1397.444,0
2301,3756,-1369.106,0
2302,3774,-1336.078,0
2303,3817,-1297.738,0
2304,3873,-1254.230,0
2305,3928,-1206.496,0
2306,3980,-1156.007,0
2307,4014,-1104.306,0
2308,4031,-1052.565,0
2309,4053,-1001.325,0
2310,4085,-950.489,0
2311,4137,-899.488,0
2312,4204,-847.555,0
2313,4281,-794.040,0
2314,4348,-738.616,0
2315,4389,-681.332,0
2316,4404,-622.617,0
2317,4411,-563.298,0
2318,4425,-504.523,0
2319,4450,-447.525,0
2320,4493,-393.376,0
2321,4540,-342.857,0
2322,4585,-296.440,0
2323,4621,-254.283,0
2324,4636,-216.149,0
2325,4645,-181.335,0
2326,4654,-148.715,0
2327,4667,-116.959,0
2328,4686,-84.941,0
2329,4711,-52.230,0
2330,4735,-19.405,0
2331,4757,12.089,0
2332,4763,40.544,0
2333,4759,64.752,0
2334,4752,84.507,0
2335,4751,100.651,0
2336,4764,114.678,0
2337,4782,128.127,0
2338,4798,141.978,0
2339,4803,156.280,0
2340,4800,170.178,0
2341,4780,182.370,0
2342,4758,191.744,0
2343,4741,197.860,0
2344,4742,201.076,0
2345,4753,202.353,0
2346,4774,202.855,0
2347,4799,203.556,0
2348,4815,205.095,0
2349,4816,207.887,0
2350,4798,212.295,0
2351,4762,218.570,0
2352,4757,226.575,0
2353,4764,235.651,0
2354,4783,244.836,0
2355,4799,253.186,0
2356,4815,259.986,0
2357,4823,264.911,0
2358,4817,268.235,0
2359,4803,270.884,0
2360,4791,274.137,0
2361,4803,279.114,0
2362,4823,286.384,0
2363,4854,295.870,0
2364,4876,306.988,0
2365,4882,318.911,0
2366,4876,330.837,0
2367,4866,342.212,0
2368,4857,352.872,0
2369,4853,363.007,0
2370,4866,372.894,0
2371,4896,382.617,0
2372,4942,392.068,0
2373,4984,401.303,0
2374,5017,410.982,0
2375,5035,422.491,0
2376,5041,437.593,0
2377,5050,457.709,0
2378,5066,483.203,0
2379,5093,513.038,0
2380,5132,544.996,0
2381,5148,576.354,0
2382,5138,604.616,0
2383,5115,627.903,0
2384,5096,645.071,0
2385,5088,655.827,0
2386,5106,660.865,0
2387,5151,661.843,0
2388,5207,661.191,0
2389,5269,661.764,0
2390,5319,666.407,0
2391,5352,677.522,0
2392,5372,696.683,0
2393,5380,724.304,0
2394,5386,759.404,0
2395,5398,799.551,0
2396,5399,841.073,0
2397,5399,879.573,0
2398,5389,910.685,0
2399,5351,930.949,0
2400,5308,938.480,0
2401,5261,933.188,0
2402,5237,916.610,0
2403,5231,891.524,0
2404,5243,861.434,0
2405,5260,829.997,0
2406,5264,800.433,0
2407,5249,775.040,0
2408,5218,754.901,0
2409,5179,739.852,0
2410,5128,728.687,0
2411,5081,719.408,0
2412,5047,709.431,0
2413,5030,695.957,0
2414,5016,676.622,0
2415,5003,650.252,0
2416,4987,617.379,0
2417,4980,580.314,0
2418,4983,542.790,0
2419,4996,509.223,0
2420,5020,483.718,0
2421,5039,469.027,0
2422,5051,465.797,0
2423,5053,472.389,0
2424,5038,485.395,0
2425,5011,500.649,0
2426,4973,514.265,0
2427,4949,523.322,0
2428,4950,526.174,0
2429,4975,522.577,0
2430,5012,513.705,0
2431,5044,501.951,0
2432,5052,490.397,0
2433,5049,482.019,0
2434,5039,478.926,0
2435,5023,481.917,0
2436,5012,490.399,0
2437,5019,502.540,0
2438,5047,515.748,0
2439,5073,527.492,0
2440,5079,536.103,0
2441,5068,541.100,0
2442,5054,542.971,0
2443,5041,542.759,0
2444,5065,541.762,0
2445,5144,541.531,0
2446,5261,544.236,0
2447,5413,553.120,0
2448,5556,572.538,0
2449,5677,607.281,0
2450,5780,661.296,0
2451,5904,736.432,0
2452,6076,832.078,0
2453,6325,946.084,0
2454,6680,1076.625,0
2455,7154,1224.384,0
2456,7683,1394.263,0
2457,8182,1595.515,0
2458,8568,1839.201,0
2459,8770,2133.017,0
2460,8718,2474.963,0
2461,8397,2847.989,0
2462,7792,3217.546,0
2463,6993,3533.455,0
2464,6186,3736.854,0
2465,5479,3772.186,0
2466,4975,3602.019,0
2467,4689,3220.014,0
2468,4617,2657.044,0
2469,4725,1977.834,0
2470,4918,1268.827,0
2471,5114,620.558,0
2472,5260,109.088,0
2473,5324,-218.756,0
2474,5322,-352.610,0
2475,5271,-316.855,0
2476,5204,-161.200,0
2477,5153,53.185,0
2478,5125,267.983,0
2479,5122,438.973,0
2480,5130,542.007,0
2481,5147,573.305,0
2482,5153,545.209,0
2483,5150,479.415,0
2484,5143,399.789,0
2485,5140,326.563,0
2486,5161,272.978,0
2487,5184,244.563,0
2488,5204,240.379,0
2489,5217,255.164,0
2490,5212,281.555,0
2491,5191,311.962,0
2492,5173,339.891,0
2493,5164,360.764,0
2494,5171,372.357,0
2495,5186,374.822,0
2496,5213,370.248,0
2497,5242,361.895,0
2498,5257,353.344,0
2499,5248,347.678,0
2500,5231,346.743,0
2501,5206,350.704,0
2502,5195,358.129,0
2503,5217,366.645,0
2504,5253,374.001,0
2505,5290,379.084,0
2506,5308,382.284,0
2507,5299,384.997,0
2508,5277,388.630,0
2509,5247,393.710,0
2510,5222,399.570,0
2511,5226,404.658,0
2512,5248,407.305,0
2513,5281,406.614,0
2514,5319,402.999,0
2515,5335,398.153,0
2516,5330,394.441,0
2517,5318,393.953,0
2518,5305,397.701,0
2519,5311,405.350,0
2520,5338,415.571,0
2521,5367,426.749,0
2522,5397,437.636,0
2523,5408,447.621,0
2524,5396,456.601,0
2525,5374,464.604,0
2526,5351,471.439,0
2527,5341,476.602,0
2528,5343,479.472,0
2529,5367,479.621,0
2530,5407,477.144,0
2531,5444,472.936,0
2532,5461,468.720,0
2533,5461,466.638,0
2534,5452,468.494,0
2535,5442,475.080,0
2536,5456,485.908,0
2537,5495,499.515,0
2538,5538,514.214,0
2539,5571,528.813,0
2540,5593,542.871,0
2541,5594,556.501,0
2542,5587,569.998,0
2543,5583,583.520,0
2544,5591,596.933,0
2545,5613,609.874,0
2546,5650,621.932,0
2547,5694,632.882,0
2548,5730,642.919,0
2549,5749,652.744,0
2550,5745,663.364,0
2551,5738,675.618,0
2552,5740,689.718,0
2553,5764,705.129,0
2554,5800,720.871,0
2555,5851,736.020,0
2556,5877,750.118,0
2557,5894,763.243,0
2558,5893,775.759,0
2559,5885,787.995,0
2560,5884,800.059,0
2561,5904,811.801,0
2562,5944,822.993,0
2563,5988,833.590,0
2564,6023,843.864,0
2565,6055,854.315,0
2566,6059,865.467,0
2567,6047,877.662,0
2568,6041,890.824,0
2569,6040,904.345,0
2570,6065,917.230,0
2571,6102,928.469,0
2572,6140,937.448,0
2573,6153,944.164,0
2574,6150,949.066,0
2575,6130,952.658,0
2576,6104,955.165,0
2577,6092,956.421,0
2578,6104,956.000,0
2579,6132,953.549,0
2580,6155,949.117,0
2581,6168,943.186,0
2582,6153,936.395,0
2583,6130,929.169,0
2584,6098,921.513,0
2585,6062,913.056,0
2586,6039,903.164,0
2587,6017,891.002,0
2588,5996,875.571,0
2589,5968,855.763,0
2590,5915,830.510,0
2591,5847,798.965,0
2592,5760,760.637,0
2593,5676,715.432,0
2594,5610,663.637,0
2595,5565,605.939,0
2596,5522,543.465,0
2597,5482,477.694,0
2598,5427,410.188,0
2599,5362,342.324,0
2600,5290,275.177,0
2601,5214,209.544,0
2602,5159,146.006,0
2603,5125,85.006,0
2604,5108,26.951,0
2605,5097,-27.708,0
2606,5085,-78.479,0
2607,5070,-124.858,0
2608,5054,-166.272,0
2609,5026,-202.000,0
2610,5003,-231.277,0
2611,4996,-253.649,0
2612,5007,-269.297,0
2613,5019,-279.087,0
2614,5040,-284.371,0
2615,5043,-286.632,0
2616,5031,-287.128,0
2617,5013,-286.698,0
2618,4989,-285.786,0
2619,4983,-284.588,0
2620,4999,-283.206,0
2621,5023,-281.665,0
2622,5056,-279.842,0
2623,5076,-277.418,0
2624,5076,-273.911,0
2625,5057,-268.854,0
2626,5024,-262.094,0
2627,5011,-254.054,0
2628,5019,-245.695,0
2629,5045,-238.102,0
2630,5095,-231.937,0
2631,5139,-227.004,0
2632,5158,-222.151,0
2633,5157,-215.663,0
2634,5136,-206.034,0
2635,5105,-192.717,0
2636,5093,-176.537,0
2637,5100,-159.549,0
2638,5134,-144.299,0
2639,5166,-132.814,0
2640,5179,-125.832,0
2641,5177,-122.698,0
2642,5161,-121.838,0
2643,5141,-121.440,0
2644,5141,-120.034,0
2645,5156,-116.790,0
2646,5189,-111.501,0
2647,5222,-104.383,0
2648,5236,-95.857,0
2649,5231,-86.457,0
2650,5215,-76.825,0
2651,5192,-67.649,0
2652,5174,-59.538,0
2653,5171,-52.965,0
2654,5189,-48.266,0
2655,5220,-45.592,0
2656,5243,-44.766,0
2657,5247,-45.205,0
2658,5239,-46.047,0
2659,5234,-46.361,0
2660,5227,-45.273,0
2661,5228,-42.054,0
2662,5245,-36.337,0
2663,5274,-28.320,0
2664,5303,-18.721,0
2665,5304,-8.514,0
2666,5291,1.298,0
2667,5277,9.815,0
2668,5251,16.407,0
2669,5257,20.877,0
2670,5268,23.512,0
2671,5292,24.983,0
2672,5307,26.061,0
2673,5309,27.247,0
2674,5292,28.522,0
2675,5267,29.378,0
2676,5237,29.092,0
2677,5217,27.087,0
2678,5212,23.129,0
2679,5238,17.376,0
2680,5275,10.406,0
2681,5307,3.261,0
2682,5316,-2.641,0
2683,5309,-5.878,0
2684,5296,-5.467,0
2685,5275,-1.147,0
2686,5270,6.540,0
2687,5282,16.341,0
2688,5302,26.587,0
2689,5317,35.607,0
2690,5318,42.095,0
2691,5303,45.305,0
2692,5284,45.127,0
2693,5268,42.092,0
2694,5272,37.289,0
2695,5291,32.183,0
2696,5324,28.324,0
2697,5359,27.000,0
2698,5370,28.962,0
2699,5362,34.224,0
2700,5343,42.025,0
2701,5317,51.030,0
2702,5306,59.742,0
2703,5317,66.936,0
2704,5346,71.980,0
2705,5380,74.982,0
2706,5395,76.645,0
2707,5401,77.892,0
2708,5397,79.505,0
2709,5379,82.006,0
2710,5354,85.666,0
2711,5348,90.395,0
2712,5355,95.631,0
2713,5376,100.447,0
2714,5391,103.850,0
2715,5395,105.097,0
2716,5390,103.925,0
2717,5376,100.658,0
2718,5369,96.210,0
2719,5372,91.917,0
2720,5390,89.207,0
2721,5415,89.184,0
2722,5445,92.301,0
2723,5450,98.248,0
2724,5433,106.038,0
2725,5407,114.186,0
2726,5386,121.045,0
2727,5381,125.329,0
2728,5409,126.609,0
2729,5449,125.568,0
2730,5498,123.874,0
2731,5517,123.631,0
2732,5519,126.580,0
2733,5501,133.397,0
2734,5477,143.481,0
2735,5454,155.266,0
2736,5445,166.765,0
2737,5453,176.076,0
2738,5468,181.744,0
2739,5489,183.001,0
2740,5494,179.894,0
2741,5481,173.269,0
2742,5458,164.544,0
2743,5439,155.312,0
2744,5440,146.995,0
2745,5456,140.654,0
2746,5479,136.906,0
2747,5504,135.867,0
2748,5517,137.151,0
2749,5513,140.016,0
2750,5495,143.615,0
2751,5476,147.228,0
2752,5471,150.400,0
2753,5485,153.003,0
2754,5503,155.206,0
2755,5536,157.308,0
2756,5556,159.559,0
2757,5554,162.088,0
2758,5538,164.880,0
2759,5511,167.748,0
2760,5494,170.366,0
2761,5491,172.358,0
2762,5504,173.405,0
2763,5530,173.315,0
2764,5555,172.078,0
2765,5554,169.905,0
2766,5540,167.157,0
2767,5517,164.178,0
2768,5489,161.198,0
2769,5479,158.299,0
2770,5496,155.432,0
2771,5533,152.563,0
2772,5575,149.925,0
2773,5600,148.150,0
2774,5609,148.144,0
2775,5605,150.766,0
2776,5600,156.567,0
2777,5607,165.684,0
2778,5619,177.847,0
2779,5636,192.359,0
2780,5663,208.026,0
2781,5686,223.275,0
2782,5679,236.538,0
2783,5667,246.652,0
2784,5657,253.093,0
2785,5661,256.136,0
2786,5692,256.941,0
2787,5738,257.418,0
2788,5800,259.847,0
2789,5863,266.377,0
2790,5900,278.610,0
2791,5925,297.317,0
2792,5937,322.310,0
2793,5939,352.526,0
2794,5951,386.223,0
2795,5973,421.192,0
2796,5992,454.985,0
2797,6004,485.140,0
2798,5987,509.358,0
2799,5950,525.641,0
2800,5896,532.455,0
2801,5839,528.951,0
2802,5791,515.134,0
2803,5769,491.908,0
2804,5763,460.969,0
2805,5769,424.622,0
2806,5764,385.499,0
2807,5732,346.180,0
2808,5695,308.739,0
2809,5641,274.421,0
2810,5595,243.565,0
2811,5564,215.717,0
2812,5543,189.844,0
2813,5531,164.599,0
2814,5518,138.600,0
2815,5486,110.726,0
2816,5449,80.369,0
2817,5417,47.636,0
2818,5391,13.488,0
2819,5388,-20.282,0
2820,5406,-51.370,0
2821,5438,-77.462,0
2822,5468,-96.750,0
2823,5472,-108.341,0
2824,5454,-112.520,0
2825,5416,-110.810,0
2826,5384,-105.697,0
2827,5373,-99.999,0
2828,5390,-96.045,0
2829,5420,-94.999,0
2830,5454,-96.653,0
2831,5474,-99.775,0
2832,5472,-102.755,0
2833,5458,-104.231,0
2834,5435,-103.463,0
2835,5423,-100.378,0
2836,5431,-95.413,0
2837,5448,-89.257,0
2838,5474,-82.665,0
2839,5499,-76.345,0
2840,5497,-70.866,0
2841,5480,-66.590,0
2842,5446,-63.716,0
2843,5417,-62.370,0
2844,5422,-62.623,0
2845,5473,-64.272,0
2846,5573,-66.314,0
2847,5703,-66.351,0
2848,5825,-60.363,0
2849,5919,-43.276,0
2850,5990,-10.330,0
2851,6072,41.375,0
2852,6215,112.148,0
2853,6433,200.401,0
2854,6737,304.504,0
2855,7157,424.911,0
2856,7655,565.828,0
2857,8161,735.772,0
2858,8600,946.081,0
2859,8881,1206.889,0
2860,8946,1521.211,0
2861,8751,1878.914,0
2862,8259,2252.728,0
2863,7500,2597.968,0
2864,6628,2857.021,0
2865,5809,2969.178,0
2866,5170,2884.945,0
2867,4783,2581.269,0
2868,4619,2072.149,0
2869,4653,1410.023,0
2870,4810,676.654,0
2871,5022,-33.776,0
2872,5200,-634.302,0
2873,5312,-1062.322,0
2874,5359,-1290.170,0
2875,5349,-1327.009,0
2876,5307,-1212.384,0
2877,5261,-1004.088,0
2878,5222,-764.047,0
2879,5195,-545.755,0
2880,5189,-385.773,0
2881,5181,-300.351,0
2882,5162,-286.910,0
2883,5139,-329.205,0
2884,5119,-404.242,0
2885,5115,-488.868,0
2886,5127,-564.538,0
2887,5144,-619.689,0
2888,5162,-649.969,0
2889,5174,-656.960,0
2890,5171,-646.083,0
2891,5162,-624.352,0
2892,5145,-598.536,0
2893,5136,-573.985,0
2894,5145,-554.127,0
2895,5166,-540.422,0
2896,5188,-532.600,0
2897,5208,-529.136,0
2898,5217,-527.865,0
2899,5212,-526.568,0
2900,5195,-523.480,0
2901,5182,-517.680,0
2902,5185,-509.248,0
2903,5214,-499.024,0
2904,5251,-488.030,0
2905,5296,-476.841,0
2906,5329,-465.245,0
2907,5343,-452.324,0
2908,5341,-436.927,0
2909,5325,-418.335,0
2910,5310,-396.836,0
2911,5306,-373.937,0
2912,5315,-352.050,0
2913,5327,-333.762,0
2914,5334,-321.009,0
2915,5328,-314.526,0
2916,5325,-313.740,0
2917,5316,-316.994,0
2918,5314,-321.990,0
2919,5324,-326.374,0
2920,5352,-328.281,0
2921,5388,-326.579,0
2922,5432,-320.788,0
2923,5461,-310.785,0
2924,5471,-296.576,0
2925,5468,-278.341,0
2926,5455,-256.696,0
2927,5457,-232.919,0
2928,5471,-208.867,0
2929,5493,-186.557,0
2930,5522,-167.609,0
2931,5548,-152.787,0
2932,5559,-141.784,0
2933,5556,-133.351,0
2934,5549,-125.808,0
2935,5554,-117.664,0
2936,5578,-108.015,0
2937,5611,-96.551,0
2938,5651,-83.339,0
2939,5673,-68.604,0
2940,5685,-52.652,0
2941,5685,-35.892,0
2942,5679,-18.841,0
2943,5678,-2.052,0
2944,5694,13.962,0
2945,5722,28.839,0
2946,5760,42.476,0
2947,5803,55.126,0
2948,5827,67.413,0
2949,5836,80.217,0
2950,5843,94.373,0
2951,5841,110.377,0
2952,5861,128.241,0
2953,5892,147.545,0
2954,5933,167.654,0
2955,5991,188.020,0
2956,6034,208.465,0
2957,6058,229.317,0
2958,6073,251.229,0
2959,6072,274.749,0
2960,6079,299.923,0
2961,6103,326.111,0
2962,6138,352.151,0
2963,6180,376.794,0
2964,6218,399.145,0
2965,6248,418.951,0
2966,6259,436.646,0
2967,6269,453.155,0
2968,6264,469.498,0
2969,6276,486.334,0
2970,6309,503.668,0
2971,6332,520.937,0
2972,6349,537.284,0
2973,6351,551.735,0
2974,6341,563.306,0
2975,6318,571.186,0
2976,6289,574.886,0
2977,6273,574.247,0
2978,6272,569.376,0
2979,6281,560.623,0
2980,6303,548.630,0
2981,6317,534.399,0
2982,6307,519.271,0
2983,6291,504.681,0
2984,6262,491.750,0
2985,6236,480.947,0
2986,6227,471.956,0
2987,6225,463.799,0
2988,6224,455.173,0
2989,6186,444.740,0
2990,6120,431.105,0
2991,6043,412.597,0
2992,5965,387.315,0
2993,5883,353.612,0
2994,5827,310.670,0
2995,5784,258.822,0
2996,5740,199.542,0
2997,5708,135.122,0
2998,5660,68.183,0
2999,5588,1.234,0
3000,5501,-63.774,0
3001,5405,-125.891,0
3002,5328,-185.379,0
3003,5275,-243.458,0
3004,5240,-301.634,0
3005,5215,-360.905,0
3006,5184,-421.266,0
3007,5146,-481.635,0
3008,5106,-540.153,0
3009,5058,-594.650,0
3010,5023,-643.165,0
3011,5004,-684.425,0
3012,5007,-718.068,0
3013,5011,-744.552,0
3014,5021,-764.851,0
3015,5012,-780.105,0
3016,4984,-791.370,0
3017,4951,-799.572,0
3018,4923,-805.584,0
3019,4911,-810.248,0
3020,4919,-814.275,0
3021,4937,-818.102,0
3022,4960,-821.774,0
3023,4957,-824.945,0
3024,4940,-827.086,0
3025,4917,-827.803,0
3026,4891,-827.035,0
3027,4878,-825.038,0
3028,4889,-822.245,0
3029,4907,-819.075,0
3030,4936,-815.732,0
3031,4959,-812.105,0
3032,4957,-807.757,0
3033,4939,-802.101,0
3034,4908,-794.754,0
3035,4884,-785.880,0
3036,4886,-776.257,0
3037,4905,-766.984,0
3038,4930,-758.972,0
3039,4956,-752.559,0
3040,4962,-747.414,0
3041,4954,-742.710,0
3042,4933,-737.471,0
3043,4909,-730.958,0
3044,4909,-722.956,0
3045,4919,-713.798,0
3046,4941,-704.146,0
3047,4956,-694.724,0
3048,4956,-686.149,0
3049,4944,-678.869,0
3050,4926,-673.110,0
3051,4914,-668.777,0
3052,4923,-665.349,0
3053,4944,-661.866,0
3054,4961,-657.140,0
3055,4981,-650.221,0
3056,4989,-640.864,0
3057,4988,-629.630,0
3058,4980,-617.541,0
3059,4970,-605.560,0
3060,4963,-594.205,0
3061,4973,-583.492,0
3062,4993,-573.142,0
3063,5018,-562.841,0
3064,5026,-552.436,0
3065,5021,-542.062,0
3066,5015,-532.142,0
3067,4999,-523.146,0
3068,4993,-515.264,0
3069,5003,-508.237,0
3070,5019,-501.445,0
3071,5043,-494.165,0
3072,5074,-485.877,0
3073,5086,-476.370,0
3074,5082,-465.665,0
3075,5071,-453.942,0
3076,5061,-441.490,0
3077,5066,-428.627,0
3078,5094,-415.571,0
3079,5123,-402.336,0
3080,5149,-388.760,0
3081,5157,-374.726,0
3082,5143,-360.439,0
3083,5115,-346.563,0
3084,5085,-334.142,0
3085,5070,-324.307,0
3086,5084,-317.855,0
3087,5105,-314.850,0
3088,5132,-314.501,0
3089,5149,-315.425,0
3090,5149,-316.136,0
3091,5139,-315.460,0
3092,5125,-312.746,0
3093,5112,-307.839,0
3094,5116,-300.960,0
3095,5135,-292.598,0
3096,5163,-283.360,0
3097,5190,-273.810,0
3098,5200,-264.330,0
3099,5192,-255.079,0
3100,5169,-246.088,0
3101,5143,-237.433,0
3102,5125,-229.399,0
3103,5119,-222.541,0
3104,5133,-217.606,0
3105,5145,-215.288,0
3106,5163,-215.899,0
3107,5156,-219.110,0
3108,5142,-223.938,0
3109,5126,-229.007,0
3110,5114,-232.934,0
3111,5133,-234.657,0
3112,5164,-233.546,0
3113,5199,-229.323,0
3114,5237,-221.937,0
3115,5254,-211.490,0
3116,5249,-198.189,0
3117,5224,-182.448,0
3118,5205,-165.105,0
3119,5203,-147.484,0
3120,5215,-131.145,0
3121,5248,-117.435,0
3122,5277,-107.058,0
3123,5282,-99.885,0
3124,5272,-95.125,0
3125,5249,-91.779,0
3126,5225,-89.024,0
3127,5217,-86.395,0
3128,5228,-83.761,0
3129,5247,-81.175,0
3130,5264,-78.746,0
3131,5269,-76.623,0
3132,5265,-75.015,0
3133,5246,-74.100,0
3134,5221,-73.898,0
3135,5210,-74.235,0
3136,5219,-74.796,0
3137,5244,-75.169,0
3138,5270,-74.870,0
3139,5284,-73.469,0
3140,5281,-70.785,0
3141,5264,-67.008,0
3142,5244,-62.644,0
3143,5229,-58.279,0
3144,5231,-54.341,0
3145,5245,-50.985,0
3146,5273,-48.124,0
3147,5301,-45.519,0
3148,5313,-42.824,0
3149,5312,-39.623,0
3150,5291,-35.521,0
3151,5263,-30.310,0
3152,5254,-24.166,0
3153,5260,-17.692,0
3154,5273,-11.721,0
3155,5285,-7.077,0
3156,5297,-4.414,0
3157,5301,-4.037,0
3158,5301,-5.645,0
3159,5296,-8.191,0
3160,5292,-10.063,0
3161,5306,-9.606,0
3162,5327,-5.706,0
3163,5355,1.871,0
3164,5372,12.477,0
3165,5380,24.850,0
3166,5376,37.552,0
3167,5359,49.414,0
3168,5343,59.769,0
3169,5344,68.399,0
3170,5353,75.348,0
3171,5376,80.761,0
3172,5390,84.779,0
3173,5386,87.487,0
3174,5373,88.875,0
3175,5355,88.880,0
3176,5342,87.567,0
3177,5345,85.328,0
3178,5362,82.932,0
3179,5374,81.326,0
3180,5391,81.228,0
3181,5407,82.786,0
3182,5420,85.645,0
3183,5431,89.428,0
3184,5435,94.227,0
3185,5459,100.743,0
3186,5492,110.067,0
3187,5515,123.229,0
3188,5539,140.620,0
3189,5558,161.516,0
3190,5563,184.136,0
3191,5551,206.196,0
3192,5534,225.589,0
3193,5520,240.846,0
3194,5528,251.345,0
3195,5556,257.358,0
3196,5600,260.000,0
3197,5650,261.089,0
3198,5692,262.900,0
3199,5725,267.813,0
3200,5746,277.920,0
3201,5762,294.623,0
3202,5794,318.324,0
3203,5833,348.350,0
3204,5863,383.102,0
3205,5880,420.241,0
3206,5872,456.801,0
3207,5832,489.382,0
3208,5784,514.499,0
3209,5734,529.129,0
3210,5702,531.374,0
3211,5687,521.002,0
3212,5685,499.570,0
3213,5694,470.067,0
3214,5687,436.207,0
3215,5646,401.574,0
3216,5599,368.762,0
3217,5554,338.872,0
3218,5510,311.670,0
3219,5477,286.167,0
3220,5442,261.100,0
3221,5404,235.101,0
3222,5367,206.700,0
3223,5317,174.456,0
3224,5275,137.347,0
3225,5237,95.302,0
3226,5211,49.609,0
3227,5217,2.909,0
3228,5236,-41.224,0
3229,5269,-79.005,0
3230,5299,-107.272,0
3231,5311,-124.191,0
3232,5309,-129.633,0
3233,5295,-125.131,0
3234,5273,-113.435,0
3235,5265,-97.873,0
3236,5283,-81.668,0
3237,5303,-67.293,0
3238,5325,-56.094,0
3239,5334,-48.348,0
3240,5324,-43.641,0
3241,5306,-41.291,0
3242,5285,-40.628,0
3243,5276,-41.069,0
3244,5282,-42.066,0
3245,5305,-43.049,0
3246,5330,-43.438,0
3247,5351,-42.718,0
3248,5354,-40.562,0
3249,5349,-36.906,0
3250,5338,-31.923,0
3251,5324,-25.898,0
3252,5323,-19.154,0
3253,5345,-12.050,0
3254,5402,-4.858,0
3255,5492,2.676,0
3256,5597,11.958,0
3257,5714,25.986,0
3258,5818,49.150,0
3259,5911,86.267,0
3260,6026,141.136,0
3261,6179,215.413,0
3262,6385,308.563,0
3263,6640,418.924,0
3264,6971,545.346,0
3265,7389,688.912,0
3266,7877,854.308,0
3267,8352,1050.095,0
3268,8732,1286.707,0
3269,8931,1571.675,0
3270,8878,1903.168,0
3271,8537,2264.159,0
3272,7917,2619.716,0
3273,7104,2919.165,0
3274,6280,3103.804,0
3275,5576,3119.497,0
3276,5102,2931.456,0
3277,4872,2536.615,0
3278,4845,1968.894,0
3279,4964,1294.841,0
3280,5156,600.595,0
3281,5319,-25.970,0
3282,5434,-513.085,0
3283,5491,-818.429,0
3284,5499,-934.868,0
3285,5483,-887.804,0
3286,5461,-725.795,0
3287,5439,-507.538,0
3288,5429,-288.741,0
3289,5412,-111.836,0
3290,5394,-0.416,0
3291,5370,41.160,0
3292,5343,23.864,0
3293,5324,-32.419,0
3294,5320,-105.723,0
3295,5327,-177.428,0
3296,5346,-235.246,0
3297,5369,-273.675,0
3298,5378,-292.584,0
3299,5379,-295.043,0
3300,5361,-285.403,0
3301,5351,-268.157,0
3302,5361,-247.453,0
3303,5385,-226.816,0
3304,5410,-208.846,0
3305,5439,-194.982,0
3306,5445,-185.427,0
3307,5431,-179.309,0
3308,5410,-175.155,0
3309,5386,-171.537,0
3310,5383,-167.589,0
3311,5401,-163.201,0
3312,5428,-158.802,0
3313,5465,-154.896,0
3314,5488,-151.599,0
3315,5490,-148.385,0
3316,5479,-144.229,0
3317,5460,-138.083,0
3318,5448,-129.445,0
3319,5459,-118.694,0
3320,5475,-107.032,0
3321,5505,-96.040,0
3322,5524,-87.075,0
3323,5525,-80.768,0
3324,5517,-76.845,0
3325,5503,-74.328,0
3326,5502,-71.933,0
3327,5520,-68.482,0
3328,5551,-63.167,0
3329,5598,-55.621,0
3330,5634,-45.795,0
3331,5653,-33.771,0
3332,5660,-19.650,0
3333,5651,-3.567,0
3334,5633,14.184,0
3335,5625,32.910,0
3336,5640,51.356,0
3337,5663,67.892,0
3338,5684,81.016,0
3339,5701,89.852,0
3340,5709,94.465,0
3341,5704,95.935,0
3342,5696,96.108,0
3343,5703,97.023,0
3344,5728,100.316,0
3345,5762,106.871,0
3346,5791,116.758,0
3347,5812,129.322,0
3348,5806,143.398,0
3349,5791,157.590,0
3350,5768,170.546,0
3351,5761,181.204,0
3352,5791,189.022,0
3353,5837,194.248,0
3354,5900,198.070,0
3355,5955,202.475,0
3356,5988,209.779,0
3357,5996,221.969,0
3358,5979,240.026,0
3359,5963,263.455,0
3360,5966,290.254,0
3361,5997,317.476,0
3362,6033,342.195,0
3363,6082,362.410,0
3364,6125,377.568,0
3365,6145,388.655,0
3366,6140,397.795,0
3367,6144,407.410,0
3368,6158,419.375,0
3369,6182,434.586,0
3370,6222,452.911,0
3371,6262,473.367,0
3372,6289,494.487,0
3373,6318,514.804,0
3374,6331,533.353,0
3375,6326,550.019,0
3376,6328,565.406,0
3377,6332,580.271,0
3378,6354,594.941,0
3379,6398,609.081,0
3380,6440,621.996,0
3381,6463,633.209,0
3382,6478,642.845,0
3383,6474,651.623,0
3384,6447,660.494,0
3385,6440,670.023,0
3386,6454,679.905,0
3387,6488,689.070,0
3388,6527,696.319,0
3389,6565,701.014,0
3390,6570,703.464,0
3391,6566,704.783,0
3392,6549,706.354,0
3393,6532,709.190,0
3394,6527,713.465,0
3395,6527,718.333,0
3396,6530,722.095,0
3397,6527,722.661,0
3398,6502,718.145,0
3399,6460,707.367,0
3400,6394,690.018,0
3401,6321,666.412,0
3402,6268,637.006,0
3403,6227,602.058,0
3404,6196,561.650,0
3405,6156,515.896,0
3406,6093,465.102,0
3407,6011,409.738,0
3408,5916,350.325,0
3409,5825,287.352,0
3410,5754,221.322,0
3411,5710,152.891,0
3412,5676,83.025,0
3413,5644,13.010,0
3414,5596,-55.773,0
3415,5536,-122.162,0
3416,5483,-185.385,0
3417,5431,-244.914,0
3418,5395,-300.159,0
3419,5378,-350.355,0
3420,5377,-394.729,0
3421,5385,-432.764,0
3422,5392,-464.373,0
3423,5381,-489.860,0
3424,5366,-509.766,0
3425,5342,-524.674,0
3426,5323,-535.102,0
3427,5316,-541.535,0
3428,5323,-544.581,0
3429,5339,-545.092,0
3430,5371,-544.092,0
3431,5371,-542.467,0
3432,5368,-540.690,0
3433,5355,-538.760,0
3434,5349,-536.288,0
3435,5357,-532.613,0
3436,5381,-526.981,0
3437,5400,-518.814,0
3438,5413,-508.055,0
3439,5416,-495.434,0
3440,5409,-482.388,0
3441,5389,-470.561,0
3442,5368,-461.209,0
3443,5361,-454.848,0
3444,5374,-451.204,0
3445,5401,-449.373,0
3446,5430,-448.100,0
3447,5451,-446.140,0
3448,5450,-442.573,0
3449,5442,-436.995,0
3450,5425,-429.507,0
3451,5419,-420.528,0
3452,5423,-410.584,0
3453,5438,-400.184,0
3454,5467,-389.817,0
3455,5500,-379.912,0
3456,5516,-370.675,0
3457,5527,-361.913,0
3458,5535,-352.986,0
3459,5542,-342.881,0
3460,5571,-330.405,0
3461,5612,-314.474,0
3462,5656,-294.395,0
3463,5687,-270.131,0
3464,5696,-242.534,0
3465,5696,-213.372,0
3466,5690,-184.954,0
3467,5680,-159.431,0
3468,5680,-138.167,0
3469,5701,-121.499,0
3470,5723,-108.874,0
3471,5760,-99.203,0
3472,5796,-91.210,0
3473,5802,-83.625,0
3474,5791,-75.356,0
3475,5774,-65.766,0
3476,5761,-54.879,0
3477,5763,-43.310,0
3478,5773,-32.026,0
3479,5794,-22.087,0
3480,5807,-14.411,0
3481,5810,-9.586,0
3482,5801,-7.726,0
3483,5780,-8.438,0
3484,5749,-10.940,0
3485,5737,-14.406,0
3486,5749,-18.269,0
3487,5768,-22.255,0
3488,5795,-26.193,0
3489,5812,-29.842,0
3490,5796,-32.839,0
3491,5768,-34.864,0
3492,5733,-35.943,0
3493,5720,-36.576,0
3494,5735,-37.501,0
3495,5763,-39.211,0
3496,5789,-41.610,0
3497,5802,-44.088,0
3498,5801,-45.918,0
3499,5794,-46.602,0
3500,5774,-45.930,0
3501,5755,-43.912,0
3502,5756,-40.778,0
3503,5767,-37.004,0
3504,5789,-33.233,0
3505,5799,-30.135,0
3506,5792,-28.299,0
3507,5773,-28.191,0
3508,5753,-30.080,0
3509,5732,-33.893,0
3510,5731,-39.131,0
3511,5743,-44.955,0
3512,5764,-50.420,0
3513,5787,-54.739,0
3514,5790,-57.481,0
3515,5769,-58.670,0
3516,5741,-58.812,0
3517,5713,-58.781,0
3518,5711,-59.485,0
3519,5727,-61.427,0
3520,5755,-64.409,0
3521,5779,-67.609,0
3522,5801,-69.980,0
3523,5795,-70.688,0
3524,5771,-69.395,0
3525,5742,-66.377,0
3526,5721,-62.462,0
3527,5724,-58.748,0
3528,5741,-56.192,0
3529,5763,-55.308,0
3530,5780,-56.093,0
3531,5780,-58.177,0
3532,5759,-61.035,0
3533,5738,-64.184,0
3534,5708,-67.286,0
3535,5699,-70.195,0
3536,5709,-72.963,0
3537,5735,-75.744,0
3538,5751,-78.634,0
3539,5751,-81.609,0
3540,5748,-84.610,0
3541,5743,-87.527,0
3542,5727,-90.011,0
3543,5727,-91.412,0
3544,5738,-91.013,0
3545,5751,-88.385,0
3546,5771,-83.672,0
3547,5788,-77.640,0
3548,5790,-71.371,0
3549,5784,-65.774,0
3550,5772,-61.226,0
3551,5771,-57.480,0
3552,5779,-53.846,0
3553,5800,-49.530,0
3554,5836,-43.977,0
3555,5861,-37.012,0
3556,5874,-28.775,0
3557,5873,-19.573,0
3558,5851,-9.769,0
3559,5822,0.200,0
3560,5799,9.659,0
3561,5792,17.540,0
3562,5795,22.492,0
3563,5811,23.252,0
3564,5821,19.159,0
3565,5822,10.579,0
3566,5803,-1.031,0
3567,5778,-13.531,0
3568,5765,-24.817,0
3569,5776,-33.421,0
3570,5793,-38.712,0
3571,5819,-40.775,0
3572,5830,-40.207,0
3573,5819,-37.914,0
3574,5797,-34.976,0
3575,5769,-32.498,0
3576,5747,-31.405,0
3577,5745,-32.252,0
3578,5759,-35.128,0
3579,5781,-39.667,0
3580,5808,-45.155,0
3581,5816,-50.663,0
3582,5805,-55.219,0
3583,5779,-58.056,0
3584,5736,-58.917,0
3585,5738,-58.249,0
3586,5748,-57.021,0
3587,5764,-56.198,0
3588,5790,-56.362,0
3589,5796,-57.647,0
3590,5781,-59.849,0
3591,5760,-62.627,0
3592,5730,-65.688,0
3593,5705,-68.879,0
3594,5701,-72.257,0
3595,5700,-76.116,0
3596,5705,-80.944,0
3597,5704,-87.329,0
3598,5684,-95.799,0
3599,5657,-106.619,0
3600,5623,-119.657,0
3601,5597,-134.348,0
3602,5591,-149.802,0
3603,5596,-165.000,0
3604,5617,-179.010,0
3605,5638,-191.128,0
3606,5641,-200.887,0
3607,5639,-208.005,0
3608,5612,-212.356,0
3609,5582,-214.028,0
3610,5565,-213.498,0
3611,5555,-211.729,0
3612,5559,-210.067,0
3613,5569,-209.975,0
3614,5575,-212.622,0
3615,5572,-218.464,0
3616,5561,-226.996,0
3617,5535,-236.845,0
3618,5521,-246.241,0
3619,5520,-253.661,0
3620,5532,-258.287,0
3621,5548,-260.124,0
3622,5559,-259.844,0
3623,5563,-258.451,0
3624,5576,-256.806,0
3625,5599,-255.062,0
3626,5625,-252.253,0
3627,5666,-246.379,0
3628,5718,-235.090,0
3629,5773,-216.566,0
3630,5804,-190.209,0
3631,5799,-157.048,0
3632,5774,-119.839,0
3633,5732,-82.705,0
3634,5688,-50.293,0
3635,5668,-26.701,0
3636,5664,-14.540,0
3637,5668,-14.380,0
3638,5686,-24.789,0
3639,5704,-42.811,0
3640,5721,-64.541,0
3641,5733,-85.660,0
3642,5735,-102.023,0
3643,5743,-110.359,0
3644,5763,-108.933,0
3645,5791,-97.875,0
3646,5825,-79.002,0
3647,5837,-55.243,0
3648,5820,-29.992,0
3649,5781,-6.639,0
3650,5721,11.706,0
3651,5664,22.410,0
3652,5629,23.544,0
3653,5607,14.167,0
3654,5596,-5.431,0
3655,5587,-33.749,0
3656,5556,-68.378,0
3657,5516,-106.509,0
3658,5460,-145.502,0
3659,5410,-183.328,0
3660,5376,-218.771,0
3661,5353,-251.384,0
3662,5337,-281.321,0
3663,5312,-309.219,0
3664,5266,-336.134,0
3665,5212,-363.473,0
3666,5157,-392.717,0
3667,5105,-424.909,0
3668,5076,-460.144,0
3669,5063,-497.387,0
3670,5068,-534.684,0
3671,5071,-569.703,0
3672,5078,-600.366,0
3673,5081,-625.261,0
3674,5073,-643.662,0
3675,5052,-655.340,0
3676,5028,-660.518,0
3677,5021,-660.008,0
3678,5019,-655.288,0
3679,5025,-648.347,0
3680,5023,-641.358,0
3681,5009,-636.303,0
3682,4991,-634.611,0
3683,4962,-636.865,0
3684,4939,-642.686,0
3685,4942,-650.870,0
3686,4965,-659.653,0
3687,4998,-666.991,0
3688,5037,-670.890,0
3689,5060,-669.783,0
3690,5064,-662.825,0
3691,5055,-650.066,0
3692,5035,-632.454,0
3693,5017,-611.683,0
3694,5039,-589.887,0
3695,5049,-569.148,0
3696,5058,-551.045,0
3697,5090,-536.516,0
3698,5140,-525.689,0
3699,5208,-517.328,0
3700,5297,-508.284,0
3701,5398,-493.591,0
3702,5515,-467.399,0
3703,5648,-424.452,0
3704,5807,-361.431,0
3705,5994,-277.458,0
3706,6230,-173.490,0
3707,6547,-50.713,0
3708,6972,91.614,0
3709,7465,258.081,0
3710,7958,457.521,0
3711,8356,700.624,0
3712,8576,994.713,0
3713,8551,1337.238,0
3714,8230,1710.412,0
3715,7619,2079.112,0
3716,6820,2393.271,0
3717,6015,2595.277,0
3718,5321,2631.944,0
3719,4847,2468.546,0
3720,4592,2100.577,0
3721,4549,1558.897,0
3722,4647,906.107,0
3723,4801,224.898,0
3724,4948,-398.587,0
3725,5051,-892.091,0
3726,5111,-1210.834,0
3727,5136,-1344.077,0
3728,5131,-1313.532,0
3729,5111,-1164.886,0
3730,5074,-955.340,0
3731,5024,-740.591,0
3732,4969,-564.331,0
3733,4921,-452.188,0
3734,4885,-410.677,0
3735,4879,-430.409,0
3736,4905,-491.953,0
3737,4953,-572.311,0
3738,4994,-650.405,0
3739,5005,-710.768,0
3740,5005,-745.236,0
3741,4991,-752.723,0
3742,4979,-737.462,0
3743,4973,-706.590,0
3744,4988,-667.953,0
3745,5019,-628.536,0
3746,5059,-593.511,0
3747,5101,-565.730,0
3748,5130,-545.579,0
3749,5148,-531.198,0
3750,5155,-519.155,0
3751,5161,-505.528,0
3752,5173,-487.159,0
3753,5192,-462.692,0
3754,5216,-433.007,0
3755,5235,-400.869,0
3756,5231,-369.941,0
3757,5213,-343.622,0
3758,5191,-324.129,0
3759,5165,-312.058,0
3760,5157,-306.504,0
3761,5166,-305.654,0
3762,5197,-307.480,0
3763,5234,-310.175,0
3764,5259,-312.233,0
3765,5265,-312.363,0
3766,5261,-309.457,0
3767,5248,-302.680,0
3768,5253,-291.633,0
3769,5259,-276.530,0
3770,5269,-258.342,0
3771,5283,-238.869,0
3772,5285,-220.535,0
3773,5273,-205.813,0
3774,5252,-196.501,0
3775,5226,-193.188,0
3776,5205,-195.125,0
3777,5197,-200.605,0
3778,5223,-207.620,0
3779,5250,-214.388,0
3780,5260,-219.606,0
3781,5253,-222.620,0
3782,5247,-223.493,0
3783,5235,-222.702,0
3784,5225,-220.608,0
3785,5231,-217.160,0
3786,5248,-212.031,0
3787,5269,-204.991,0
3788,5294,-196.247,0
3789,5307,-186.497,0
3790,5311,-176.637,0
3791,5303,-167.297,0
3792,5294,-158.538,0
3793,5299,-149.864,0
3794,5326,-140.486,0
3795,5362,-129.641,0
3796,5399,-116.836,0
3797,5420,-102.028,0
3798,5429,-85.658,0
3799,5427,-68.483,0
3800,5418,-51.245,0
3801,5419,-34.396,0
3802,5439,-18.041,0
3803,5464,-2.043,0
3804,5493,13.735,0
3805,5517,29.189,0
3806,5524,43.919,0
3807,5530,57.422,0
3808,5535,69.484,0
3809,5542,80.522,0
3810,5556,91.596,0
3811,5592,103.984,0
3812,5617,118.613,0
3813,5642,135.620,0
3814,5637,154.171,0
3815,5637,172.632,0
3816,5635,189.162,0
3817,5649,202.572,0
3818,5676,212.990,0
3819,5725,221.942,0
3820,5764,231.788,0
3821,5808,244.765,0
3822,5824,262.090,0
3823,5813,283.494,0
3824,5805,307.289,0
3825,5783,330.963,0
3826,5765,351.996,0
3827,5776,368.479,0
3828,5801,379.433,0
3829,5819,384.913,0
3830,5842,385.836,0
3831,5857,383.637,0
3832,5869,380.055,0
3833,5876,377.068,0
3834,5889,376.750,0
3835,5900,380.887,0
3836,5925,390.440,0
3837,5940,405.106,0
3838,5955,423.222,0
3839,5931,442.090,0
3840,5882,458.484,0
3841,5830,469.157,0
3842,5770,471.376,0
3843,5715,463.415,0
3844,5677,444.750,0
3845,5650,415.926,0
3846,5615,378.300,0
3847,5572,333.712,0
3848,5518,284.144,0
3849,5456,231.519,0
3850,5383,177.620,0
3851,5315,123.947,0
3852,5275,71.484,0
3853,5235,20.610,0
3854,5204,-28.798,0
3855,5164,-77.211,0
3856,5106,-125.251,0
3857,5050,-173.479,0
3858,4989,-222.129,0
3859,4926,-270.924,0
3860,4875,-319.176,0
3861,4848,-366.151,0
3862,4849,-411.304,0
3863,4852,-454.128,0
3864,4834,-493.871,0
3865,4821,-529.510,0
3866,4804,-559.950,0
3867,4776,-584.199,0
3868,4760,-601.607,0
3869,4750,-612.236,0
3870,4762,-617.068,0
3871,4777,-617.822,0
3872,4777,-616.434,0
3873,4770,-614.549,0
3874,4751,-613.207,0
3875,4735,-612.738,0
3876,4729,-612.799,0
3877,4732,-612.594,0
3878,4747,-611.224,0
3879,4766,-608.066,0
3880,4777,-602.998,0
3881,4773,-596.387,0
3882,4765,-588.897,0
3883,4765,-581.152,0
3884,4775,-573.326,0
3885,4797,-564.878,0
3886,4820,-554.719,0
3887,4846,-541.768,0
3888,4862,-525.596,0
3889,4867,-506.745,0
3890,4866,-486.565,0
3891,4860,-466.666,0
3892,4841,-448.323,0
3893,4825,-432.246,0
3894,4826,-418.776,0
3895,4841,-408.142,0
3896,4871,-400.437,0
3897,4880,-395.379,0
3898,4889,-392.170,0
3899,4895,-389.576,0
3900,4892,-386.104,0
3901,4882,-380.286,0
3902,4884,-371.179,0
3903,4892,-358.815,0
3904,4905,-344.283,0
3905,4916,-329.355,0
3906,4919,-315.877,0
3907,4921,-305.138,0
3908,4911,-297.443,0
3909,4904,-292.093,0
3910,4909,-287.775,0
3911,4930,-283.104,0
3912,4949,-277.030,0
3913,4972,-269.046,0
3914,4975,-259.230,0
3915,4971,-248.140,0
3916,4958,-236.588,0
3917,4937,-225.391,0
3918,4937,-215.201,0
3919,4954,-206.402,0
3920,4983,-198.974,0
3921,5017,-192.425,0
3922,5036,-185.885,0
3923,5044,-178.380,0
3924,5035,-169.154,0
3925,5022,-157.913,0
3926,5013,-144.916,0
3927,5022,-130.903,0
3928,5047,-116.839,0
3929,5073,-103.565,0
3930,5095,-91.552,0
3931,5104,-80.849,0
3932,5105,-71.167,0
3933,5104,-61.985,0
3934,5103,-52.633,0
3935,5103,-42.452,0
3936,5117,-31.072,0
3937,5138,-18.638,0
3938,5152,-5.803,0
3939,5157,6.502,0
3940,5150,17.345,0
3941,5138,26.061,0
3942,5126,32.447,0
3943,5133,36.822,0
3944,5153,39.963,0
3945,5186,42.964,0
3946,5229,47.035,0
3947,5249,53.291,0
3948,5252,62.502,0
3949,5236,74.792,0
3950,5215,89.454,0
3951,5208,105.072,0
3952,5225,119.970,0
3953,5263,132.859,0
3954,5303,143.371,0
3955,5327,152.143,0
3956,5325,160.372,0
3957,5313,169.081,0
3958,5295,178.611,0
3959,5280,188.583,0
3960,5278,198.196,0
3961,5289,206.570,0
3962,5320,213.038,0
3963,5348,217.387,0
3964,5355,219.987,0
3965,5344,221.626,0
3966,5325,223.108,0
3967,5315,224.944,0
3968,5307,227.317,0
3969,5302,230.148,0
3970,5316,233.072,0
3971,5331,235.440,0
3972,5343,236.552,0
3973,5345,236.006,0
3974,5326,233.926,0
3975,5307,230.901,0
3976,5307,227.716,0
3977,5328,225.178,0
3978,5354,224.101,0
3979,5378,225.228,0
3980,5392,228.961,0
3981,5397,235.105,0
3982,5383,242.898,0
3983,5356,251.251,0
3984,5335,258.988,0
3985,5339,265.041,0
3986,5360,268.721,0
3987,5390,270.001,0
3988,5417,269.563,0
3989,5429,268.553,0
3990,5434,268.209,0
3991,5420,269.538,0
3992,5400,273.106,0
3993,5402,278.884,0
3994,5417,286.287,0
3995,5444,294.462,0
3996,5475,302.623,0
3997,5497,310.274,0
3998,5510,317.308,0
3999,5503,324.008,0
4000,5484,330.869,0
4001,5471,338.265,0
4002,5478,346.141,0
4003,5495,354.001,0
4004,5517,361.142,0
4005,5532,366.912,0
4006,5536,370.888,0
4007,5529,372.980,0
4008,5510,373.472,0
4009,5502,372.943,0
4010,5521,372.132,0
4011,5557,371.912,0
4012,5599,373.305,0
4013,5631,377.337,0
4014,5634,384.666,0
4015,5621,395.153,0
4016,5600,407.696,0
4017,5573,420.489,0
4018,5564,431.557,0
4019,5566,439.274,0
4020,5577,442.685,0
4021,5585,441.566,0
4022,5585,436.260,0
4023,5582,427.491,0
4024,5576,416.321,0
4025,5562,404.197,0
4026,5557,392.830,0
4027,5567,383.816,0
4028,5587,378.227,0
4029,5609,376.378,0
4030,5622,377.810,0
4031,5617,381.452,0
4032,5601,385.909,0
4033,5584,389.810,0
4034,5577,392.172,0
4035,5591,392.690,0
4036,5612,391.806,0
4037,5645,390.504,0
4038,5674,389.925,0
4039,5683,390.994,0
4040,5681,394.182,0
4041,5672,399.432,0
4042,5667,406.297,0
4043,5685,414.224,0
4044,5709,422.837,0
4045,5739,432.039,0
4046,5777,441.874,0
4047,5810,452.366,0
4048,5833,463.574,0
4049,5839,475.721,0
4050,5831,489.164,0
4051,5839,504.120,0
4052,5869,520.439,0
4053,5916,537.700,0
4054,5975,555.544,0
4055,6015,573.929,0
4056,6037,593.100,0
4057,6036,613.274,0
4058,6035,634.307,0
4059,6039,655.619,0
4060,6063,676.412,0
4061,6104,696.020,0
4062,6156,714.180,0
4063,6182,731.077,0
4064,6172,747.023,0
4065,6136,761.830,0
4066,6086,774.340,0
4067,6032,782.511,0
4068,6004,784.021,0
4069,6001,777.100,0
4070,6007,761.261,0
4071,6012,737.564,0
4072,5990,708.247,0
4073,5949,675.903,0
4074,5894,642.657,0
4075,5833,609.696,0
4076,5791,577.256,0
4077,5755,544.924,0
4078,5736,511.993,0
4079,5732,477.766,0
4080,5725,441.845,0
4081,5705,404.444,0
4082,5690,366.525,0
4083,5667,329.738,0
4084,5659,296.185,0
4085,5677,268.003,0
4086,5708,246.957,0
4087,5739,234.110,0
4088,5764,229.550,0
4089,5753,232.231,0
4090,5729,240.011,0
4091,5681,249.922,0
4092,5639,258.680,0
4093,5628,263.317,0
4094,5647,261.900,0
4095,5680,254.139,0
4096,5719,241.527,0
4097,5743,226.868,0
4098,5744,213.426,0
4099,5729,204.004,0
4100,5709,200.239,0
4101,5710,202.336,0
4102,5733,209.319,0
4103,5768,219.629,0
4104,5809,231.701,0
4105,5845,244.326,0
4106,5858,256.806,0
4107,5843,268.920,0
4108,5811,280.629,0
4109,5796,291.693,0
4110,5824,301.581,0
4111,5895,309.954,0
4112,6013,317.501,0
4113,6151,326.639,0
4114,6272,341.588,0
4115,6373,367.572,0
4116,6448,409.311,0
4117,6522,469.470,0
4118,6638,547.829,0
4119,6815,641.692,0
4120,7085,747.575,0
4121,7461,863.657,0
4122,7886,992.101,0
4123,8308,1140.013,0
4124,8652,1317.880,0
4125,8820,1535.279,0
4126,8735,1794.676,0
4127,8396,2085.073,0
4128,7831,2378.109,0
4129,7123,2629.151,0
4130,6405,2784.432,0
4131,5796,2793.224,0
4132,5357,2621.996,0
4133,5125,2266.060,0
4134,5071,1754.497,0
4135,5149,1146.285,0
4136,5296,518.511,0
4137,5471,-49.915,0
4138,5627,-494.319,0
4139,5748,-775.877,0
4140,5805,-886.380,0
4141,5805,-846.031,0
4142,5775,-695.867,0
4143,5749,-487.150,0
4144,5735,-270.204,0
4145,5724,-85.160,0
4146,5721,43.491,0
4147,5705,107.880,0
4148,5679,114.010,0
4149,5646,76.773,0
4150,5605,14.454,0
4151,5588,-55.863,0
4152,5602,-121.119,0
4153,5645,-173.097,0
4154,5690,-207.786,0
4155,5713,-224.304,0
4156,5714,-224.140,0
4157,5693,-210.741,0
4158,5665,-189.060,0
4159,5651,-164.744,0
4160,5661,-142.978,0
4161,5686,-127.292,0
4162,5721,-118.831,0
4163,5751,-116.419,0
4164,5761,-117.346,0
4165,5755,-118.527,0
4166,5735,-117.611,0
4167,5717,-113.638,0
4168,5718,-107.059,0
4169,5727,-99.211,0
4170,5749,-91.589,0
4171,5774,-85.267,0
4172,5779,-80.646,0
4173,5764,-77.571,0
4174,5743,-75.728,0
4175,5718,-74.994,0
4176,5717,-75.476,0
4177,5735,-77.241,0
4178,5775,-79.920,0
4179,5810,-82.473,0
4180,5820,-83.413,0
4181,5814,-81.460,0
4182,5795,-76.246,0
4183,5775,-68.546,0
4184,5774,-59.909,0
4185,5778,-51.954,0
4186,5797,-45.763,0
4187,5823,-41.656,0
4188,5847,-39.280,0
4189,5853,-37.843,0
4190,5844,-36.430,0
4191,5819,-34.367,0
4192,5802,-31.498,0
4193,5811,-28.187,0
4194,5834,-24.966,0
4195,5865,-22.075,0
4196,5893,-19.263,0
4197,5893,-15.982,0
4198,5878,-11.829,0
4199,5845,-6.969,0
4200,5821,-2.246,0
4201,5814,1.116,0
4202,5832,2.101,0
4203,5860,0.453,0
4204,5896,-3.111,0
4205,5908,-7.149,0
4206,5915,-10.046,0
4207,5909,-10.570,0
4208,5896,-8.145,0
4209,5894,-2.844,0
4210,5912,4.777,0
4211,5950,13.984,0
4212,6000,24.241,0
4213,6046,35.478,0
4214,6067,48.105,0
4215,6075,62.716,0
4216,6054,79.617,0
4217,6032,98.404,0
4218,6019,117.762,0
4219,6031,135.671,0
4220,6073,150.074,0
4221,6125,159.783,0
4222,6158,165.156,0
4223,6169,168.038,0
4224,6168,170.976,0
4225,6163,176.233,0
4226,6169,185.112,0
4227,6188,197.779,0
4228,6223,213.445,0
4229,6255,230.768,0
4230,6275,248.256,0
4231,6284,264.562,0
4232,6276,278.694,0
4233,6251,290.116,0
4234,6229,298.658,0
4235,6228,304.274,0
4236,6249,306.950,0
4237,6276,306.851,0
4238,6305,304.499,0
4239,6314,300.792,0
4240,6312,296.833,0
4241,6308,293.697,0
4242,6300,292.267,0
4243,6305,293.142,0
4244,6324,296.520,0
4245,6350,302.136,0
4246,6364,309.273,0
4247,6361,316.816,0
4248,6347,323.356,0
4249,6323,327.448,0
4250,6299,328.018,0
4251,6289,324.682,0
4252,6298,317.839,0
4253,6305,308.503,0
4254,6307,297.888,0
4255,6281,286.814,0
4256,6224,275.184,0
4257,6145,261.744,0
4258,6048,244.256,0
4259,5968,220.028,0
4260,5911,186.702,0
4261,5869,143.059,0
4262,5837,89.503,0
4263,5794,27.966,0
4264,5724,-38.702,0
4265,5645,-107.581,0
4266,5565,-176.363,0
4267,5502,-243.537,0
4268,5462,-308.117,0
4269,5444,-369.266,0
4270,5447,-426.062,0
4271,5451,-477.483,0
4272,5439,-522.535,0
4273,5409,-560.498,0
4274,5373,-591.205,0
4275,5337,-615.134,0
4276,5310,-633.298,0
4277,5296,-647.049,0
4278,5295,-657.936,0
4279,5298,-667.545,0
4280,5295,-677.274,0
4281,5272,-688.079,0
4282,5231,-700.349,0
4283,5187,-713.997,0
4284,5157,-728.666,0
4285,5151,-743.859,0
4286,5171,-758.917,0
4287,5197,-772.948,0
4288,5220,-784.846,0
4289,5223,-793.494,0
4290,5207,-798.067,0
4291,5178,-798.305,0
4292,5146,-794.665,0
4293,5129,-788.306,0
4294,5135,-780.875,0
4295,5153,-774.088,0
4296,5166,-769.263,0
4297,5169,-767.040,0
4298,5156,-767.356,0
4299,5148,-769.540,0
4300,5141,-772.392,0
4301,5153,-774.287,0
4302,5181,-773.419,0
4303,5205,-768.229,0
4304,5231,-757.936,0
4305,5237,-742.917,0
4306,5226,-724.711,0
4307,5204,-705.597,0
4308,5188,-687.913,0
4309,5182,-673.344,0
4310,5199,-662.458,0
4311,5233,-654.649,0
4312,5270,-648.452,0
4313,5289,-642.096,0
4314,5294,-634.123,0
4315,5289,-623.829,0
4316,5265,-611.299,0
4317,5237,-597.222,0
4318,5228,-582.728,0
4319,5230,-569.228,0
4320,5252,-558.112,0
4321,5274,-550.360,0
4322,5285,-546.209,0
4323,5282,-545.035,0
4324,5263,-545.530,0
4325,5237,-546.123,0
4326,5236,-545.481,0
4327,5255,-542.810,0
4328,5291,-537.796,0
4329,5324,-530.396,0
4330,5344,-520.718,0
4331,5347,-509.042,0
4332,5339,-495.833,0
4333,5322,-481.657,0
4334,5313,-467.068,0
4335,5319,-452.575,0
4336,5337,-438.660,0
4337,5361,-425.790,0
4338,5376,-414.398,0
4339,5388,-404.803,0
4340,5385,-397.032,0
4341,5365,-390.662,0
4342,5349,-384.921,0
4343,5356,-379.007,0
4344,5375,-372.341,0
4345,5402,-364.637,0
4346,5423,-355.908,0
4347,5429,-346.480,0
4348,5418,-336.927,0
4349,5399,-327.915,0
4350,5377,-319.993,0
4351,5372,-313.439,0
4352,5380,-308.222,0
4353,5396,-304.088,0
4354,5407,-300.757,0
4355,5402,-298.162,0
4356,5386,-296.579,0
4357,5367,-296.503,0
4358,5353,-298.258,0
4359,5357,-301.568,0
4360,5377,-305.363,0
4361,5400,-308.013,0
4362,5428,-307.904,0
4363,5444,-304.076,0
4364,5444,-296.553,0
4365,5429,-286.252,0
4366,5401,-274.625,0
4367,5378,-263.251,0
4368,5373,-253.519,0
4369,5377,-246.414,0
4370,5400,-242.404,0
4371,5424,-241.403,0
4372,5425,-242.783,0
4373,5409,-245.539,0
4374,5384,-248.626,0
4375,5359,-251.271,0
4376,5349,-253.075,0
4377,5349,-253.991,0
4378,5360,-254.264,0
4379,5378,-254.358,0
4380,5383,-254.816,0
4381,5372,-256.049,0
4382,5351,-258.197,0
4383,5327,-261.107,0
4384,5321,-264.364,0
4385,5320,-267.369,0
4386,5340,-269.500,0
4387,5363,-270.309,0
4388,5368,-269.659,0
4389,5347,-267.815,0
4390,5317,-265.527,0
4391,5290,-263.912,0
4392,5266,-264.031,0
4393,5261,-266.441,0
4394,5274,-271.009,0
4395,5305,-277.003,0
4396,5338,-283.255,0
4397,5354,-288.339,0
4398,5349,-290.836,0
4399,5329,-289.710,0
4400,5308,-284.653,0
4401,5304,-276.193,0
4402,5311,-265.509,0
4403,5321,-254.092,0
4404,5333,-243.480,0
4405,5341,-235.054,0
4406,5337,-229.755,0
4407,5329,-227.777,0
4408,5321,-228.406,0
4409,5320,-230.141,0
4410,5331,-231.126,0
4411,5351,-229.749,0
4412,5375,-225.144,0
4413,5386,-217.412,0
4414,5383,-207.500,0
4415,5369,-196.843,0
4416,5339,-186.907,0
4417,5320,-178.832,0
4418,5328,-173.255,0
4419,5357,-170.160,0
4420,5384,-168.809,0
4421,5401,-167.966,0
4422,5397,-166.450,0
4423,5388,-163.650,0
4424,5370,-159.625,0
4425,5349,-154.834,0
4426,5351,-149.802,0
4427,5376,-144.874,0
4428,5410,-140.037,0
4429,5433,-134.899,0
4430,5436,-128.971,0
4431,5421,-122.097,0
4432,5376,-114.746,0
4433,5357,-107.987,0
4434,5346,-103.086,0
4435,5348,-100.897,0
4436,5365,-101.506,0
4437,5392,-104.331,0
4438,5410,-108.377,0
4439,5412,-112.477,0
4440,5395,-115.532,0
4441,5361,-116.773,0
4442,5345,-116.006,0
4443,5350,-113.625,0
4444,5372,-110.309,0
4445,5393,-106.646,0
4446,5411,-102.998,0
4447,5397,-99.613,0
4448,5377,-96.817,0
4449,5349,-95.081,0
4450,5335,-94.826,0
4451,5340,-96.096,0
4452,5355,-98.360,0
4453,5384,-100.638,0
4454,5420,-101.842,0
4455,5456,-101.023,0
4456,5487,-97.322,0
4457,5501,-89.808,0
4458,5496,-77.519,0
4459,5498,-59.900,0
4460,5503,-37.355,0
4461,5509,-11.506,0
4462,5514,14.944,0
4463,5511,38.707,0
4464,5497,56.662,0
4465,5491,66.692,0
4466,5492,68.395,0
4467,5516,63.447,0
4468,5565,55.401,0
4469,5627,48.938,0
4470,5699,48.766,0
4471,5754,58.494,0
4472,5774,79.782,0
4473,5764,111.873,0
4474,5737,151.626,0
4475,5693,194.121,0
4476,5665,233.664,0
4477,5645,264.912,0
4478,5633,283.847,0
4479,5628,288.408,0
4480,5619,278.703,0
4481,5593,256.868,0
4482,5556,226.556,0
4483,5518,192.078,0
4484,5481,157.457,0
4485,5454,125.619,0
4486,5442,97.903,0
4487,5440,74.078,0
4488,5415,52.835,0
4489,5370,32.399,0
4490,5304,10.942,0
4491,5222,-13.214,0
4492,5163,-41.458,0
4493,5136,-74.629,0
4494,5129,-112.601,0
4495,5137,-153.999,0
4496,5147,-196.373,0
4497,5142,-236.742,0
4498,5142,-272.222,0
4499,5142,-300.442,0
4500,5138,-319.691,0
4501,5150,-329.015,0
4502,5178,-328.395,0
4503,5205,-318.848,0
4504,5230,-302.332,0
4505,5235,-281.505,0
4506,5213,-259.358,0
4507,5178,-238.826,0
4508,5143,-222.418,0
4509,5135,-211.854,0
4510,5134,-207.708,0
4511,5145,-209.333,0
4512,5159,-215.214,0
4513,5156,-223.551,0
4514,5141,-232.784,0
4515,5129,-241.840,0
4516,5102,-250.041,0
4517,5083,-256.884,0
4518,5083,-262.009,0
4519,5099,-265.273,0
4520,5114,-266.768,0
4521,5131,-266.792,0
4522,5135,-265.786,0
4523,5145,-264.120,0
4524,5170,-261.711,0
4525,5227,-257.552,0
4526,5322,-249.369,0
4527,5437,-233.686,0
4528,5545,-206.501,0
4529,5626,-164.561,0
4530,5703,-106.746,0
4531,5808,-34.606,0
4532,5950,48.605,0
4533,6190,140.138,0
4534,6554,240.296,0
4535,6978,354.321,0
4536,7391,492.354,0
4537,7723,666.473,0
4538,7886,885.347,0
4539,7823,1148.318,0
4540,7524,1440.912,0
4541,7039,1733.478,0
4542,6445,1984.084,0
4543,5864,2145.711,0
4544,5379,2176.510,0
4545,5068,2050.715,0
4546,4936,1767.199,0
4547,4949,1352.907,0
4548,5046,859.486,0
4549,5167,353.426,0
4550,5268,-97.929,0
4551,5353,-440.595,0
4552,5404,-644.377,0
4553,5428,-706.869,0
4554,5436,-650.604,0
4555,5417,-514.895,0
4556,5371,-345.146,0
4557,5320,-182.717,0
4558,5277,-57.633,0
4559,5256,14.872,0
4560,5260,33.990,0
4561,5289,9.998,0
4562,5327,-40.638,0
4563,5357,-100.257,0
4564,5362,-153.951,0
4565,5350,-191.940,0
4566,5328,-210.242,0
4567,5319,-209.877,0
4568,5327,-195.176,0
4569,5348,-171.861,0
4570,5378,-145.497,0
4571,5391,-120.585,0
4572,5388,-100.244,0
4573,5372,-86.227,0
4574,5348,-79.009,0
4575,5342,-77.833,0
4576,5351,-80.817,0
4577,5376,-85.292,0
4578,5412,-88.430,0
4579,5446,-88.011,0
4580,5457,-82.967,0
4581,5449,-73.560,0
4582,5426,-61.165,0
4583,5397,-47.752,0
4584,5380,-35.291,0
4585,5379,-25.304,0
4586,5387,-18.694,0
4587,5406,-15.798,0
4588,5415,-16.545,0
4589,5414,-20.517,0
4590,5399,-26.940,0
4591,5384,-34.650,0
4592,5380,-42.156,0
4593,5403,-47.794,0
4594,5430,-49.973,0
4595,5467,-47.535,0
4596,5494,-40.144,0
4597,5504,-28.441,0
4598,5503,-13.856,0
4599,5497,1.904,0
4600,5506,17.480,0
4601,5531,32.356,0
4602,5554,46.952,0
4603,5585,62.149,0
4604,5602,78.506,0
4605,5608,95.695,0
4606,5601,112.488,0
4607,5575,127.252,0
4608,5547,138.571,0
4609,5533,145.652,0
4610,5546,148.451,0
4611,5579,147.666,0
4612,5622,144.657,0
4613,5657,141.233,0
4614,5685,139.355,0
4615,5682,140.806,0
4616,5657,146.814,0
4617,5676,157.682,0
4618,5697,172.812,0
4619,5737,191.166,0
4620,5785,211.674,0
4621,5821,233.351,0
4622,5828,255.276,0
4623,5823,276.500,0
4624,5806,296.040,0
4625,5805,313.074,0
4626,5828,327.283,0
4627,5858,339.095,0
4628,5910,349.598,0
4629,5952,360.142,0
4630,5978,371.886,0
4631,5989,385.477,0
4632,5978,400.951,0
4633,5967,417.828,0
4634,5985,435.328,0
4635,6024,452.729,0
4636,6071,469.738,0
4637,6126,486.576,0
4638,6159,503.727,0
4639,6185,521.614,0
4640,6205,540.460,0
4641,6215,560.422,0
4642,6233,581.764,0
4643,6253,604.777,0
4644,6273,629.421,0
4645,6304,654.914,0
4646,6334,679.664,0
4647,6340,701.710,0
4648,6331,719.380,0
4649,6317,731.743,0
4650,6312,738.806,0
4651,6327,741.506,0
4652,6355,741.495,0
4653,6388,740.708,0
4654,6414,740.781,0
4655,6416,742.566,0
4656,6409,745.924,0
4657,6397,749.943,0
4658,6387,753.512,0
4659,6394,755.914,0
4660,6406,757.093,0
4661,6422,757.460,0
4662,6422,757.362,0
4663,6410,756.541,0
4664,6386,753.951,0
4665,6345,748.102,0
4666,6289,737.649,0
4667,6243,721.782,0
4668,6208,700.267,0
4669,6183,673.318,0
4670,6156,641.393,0
4671,6112,604.945,0
4672,6061,564.243,0
4673,5991,519.387,0
4674,5897,470.499,0
4675,5813,417.798,0
4676,5748,361.537,0
4677,5701,302.035,0
4678,5662,239.802,0
4679,5626,175.593,0
4680,5582,110.360,0
4681,5529,45.222,0
4682,5475,-18.531,0
4683,5419,-79.458,0
4684,5375,-136.127,0
4685,5342,-187.447,0
4686,5325,-233.018,0
4687,5315,-273.260,0
4688,5293,-309.209,0
4689,5263,-342.121,0
4690,5229,-373.058,0
4691,5190,-402.556,0
4692,5172,-430.485,0
4693,5163,-456.158,0
4694,5161,-478.669,0
4695,5162,-497.372,0
4696,5169,-512.268,0
4697,5163,-523.979,0
4698,5158,-533.334,0
4699,5156,-540.826,0
4700,5152,-546.265,0
4701,5151,-548.852,0
4702,5151,-547.760,0
4703,5153,-542.872,0
4704,5155,-535.200,0
4705,5145,-526.716,0
4706,5127,-519.700,0
4707,5103,-515.977,0
4708,5093,-516.339,0
4709,5098,-520.295,0
4710,5104,-526.229,0
4711,5110,-532.014,0
4712,5106,-535.934,0
4713,5084,-537.446,0
4714,5045,-537.426,0
4715,5014,-537.797,0
4716,4987,-540.669,0
4717,4953,-547.400,0
4718,4932,-558.203,0
4719,4927,-572.427,0
4720,4941,-588.997,0
4721,4944,-606.630,0
4722,4925,-623.931,0
4723,4894,-639.660,0
4724,4865,-653.066,0
4725,4850,-663.956,0
4726,4851,-672.442,0
4727,4858,-678.629,0
4728,4878,-682.528,0
4729,4889,-684.170,0
4730,4882,-683.733,0
4731,4858,-681.659,0
4732,4824,-678.704,0
4733,4795,-675.855,0
4734,4783,-674.088,0
4735,4784,-674.067,0
4736,4787,-675.958,0
4737,4800,-679.500,0
4738,4818,-684.144,0
4739,4832,-689.011,0
4740,4825,-692.791,0
4741,4806,-693.928,0
4742,4791,-691.206,0
4743,4790,-684.322,0
4744,4801,-674.049,0
4745,4817,-661.922,0
4746,4835,-649.687,0
4747,4836,-638.741,0
4748,4826,-629.780,0
4749,4814,-622.749,0
4750,4813,-617.004,0
4751,4819,-611.532,0
4752,4827,-605.249,0
4753,4838,-597.425,0
4754,4856,-588.019,0
4755,4861,-577.648,0
4756,4859,-567.187,0
4757,4852,-557.315,0
4758,4834,-548.260,0
4759,4835,-539.831,0
4760,4850,-531.645,0
4761,4871,-523.294,0
4762,4890,-514.454,0
4763,4893,-505.011,0
4764,4888,-495.163,0
4765,4879,-485.374,0
4766,4868,-476.115,0
4767,4858,-467.606,0
4768,4860,-459.779,0
4769,4882,-452.435,0
4770,4920,-445.326,0
4771,4953,-438.022,0
4772,4959,-429.816,0
4773,4954,-419.925,0
4774,4934,-407.915,0
4775,4919,-393.996,0
4776,4926,-379.005,0
4777,4944,-364.061,0
4778,4971,-350.111,0
4779,4989,-337.653,0
4780,4980,-326.786,0
4781,4962,-317.503,0
4782,4931,-309.975,0
4783,4918,-304.539,0
4784,4935,-301.368,0
4785,4970,-299.969,0
4786,5004,-298.935,0
4787,5032,-296.299,0
4788,5029,-290.369,0
4789,5010,-280.554,0
4790,4988,-267.715,0
4791,4966,-253.804,0
4792,4960,-241.021,0
4793,4973,-230.990,0
4794,4989,-224.305,0
4795,5011,-220.572,0
4796,5021,-218.806,0
4797,5019,-217.889,0
4798,5001,-216.900,0
4799,4970,-215.291,0
4800,4951,-212.985,0
4801,4959,-210.313,0
4802,4980,-207.701,0
4803,5011,-205.301,0
4804,5030,-202.838,0
4805,5027,-199.797,0
4806,5004,-195.806,0
4807,4975,-190.969,0
4808,4954,-185.905,0
4809,4951,-181.462,0
4810,4973,-178.272,0
4811,5007,-176.396,0
4812,5034,-175.206,0
4813,5046,-173.634,0
4814,5038,-170.633,0
4815,5023,-165.603,0
4816,5009,-158.532,0
4817,5011,-149.844,0
4818,5037,-140.084,0
4819,5065,-129.620,0
4820,5090,-118.574,0
4821,5093,-107.034,0
4822,5077,-95.390,0
4823,5059,-84.471,0
4824,5053,-75.280,0
4825,5061,-68.396,0
4826,5086,-63.467,0
4827,5118,-59.205,0
4828,5141,-53.919,0
4829,5150,-46.314,0
4830,5155,-36.102,0
4831,5141,-24.035,0
4832,5108,-11.475,0
4833,5076,0.044,0
4834,5065,9.059,0
4835,5076,14.409,0
4836,5104,15.583,0
4837,5138,13.007,0
4838,5163,8.102,0
4839,5161,3.007,0
4840,5145,-0.028,0
4841,5121,0.614,0
4842,5128,5.437,0
4843,5159,13.926,0
4844,5186,25.106,0
4845,5204,37.983,0
4846,5209,51.535,0
4847,5190,64.554,0
4848,5159,75.662,0
4849,5135,83.554,0
4850,5129,87.402,0
4851,5138,87.241,0
4852,5164,84.058,0
4853,5200,79.509,0
4854,5226,75.470,0
4855,5223,73.574,0
4856,5210,74.797,0
4857,5193,79.233,0
4858,5177,86.220,0
4859,5171,94.672,0
4860,5200,103.396,0
4861,5245,111.446,0
4862,5279,118.508,0
4863,5291,125.001,0
4864,5285,131.716,0
4865,5255,139.273,0
4866,5228,147.725,0
4867,5214,156.448,0
4868,5215,164.352,0
4869,5231,170.253,0
4870,5261,173.267,0
4871,5290,173.166,0
4872,5321,170.696,0
4873,5331,167.669,0
4874,5327,166.630,0
4875,5327,170.029,0
4876,5337,179.301,0
4877,5355,194.337,0
4878,5388,213.550,0
4879,5400,234.424,0
4880,5393,254.240,0
4881,5375,270.639,0
4882,5347,282.004,0
4883,5335,287.703,0
4884,5348,288.197,0
4885,5389,285.003,0
4886,5442,280.503,0
4887,5499,277.537,0
4888,5538,278.840,0
4889,5555,286.476,0
4890,5551,301.373,0
4891,5534,323.060,0
4892,5525,349.663,0
4893,5528,378.215,0
4894,5541,405.262,0
4895,5544,427.555,0
4896,5535,442.581,0
4897,5514,448.849,0
4898,5473,446.016,0
4899,5429,434.856,0
4900,5389,416.976,0
4901,5368,394.372,0
4902,5365,368.988,0
4903,5371,342.448,0
4904,5381,316.003,0
4905,5377,290.642,0
4906,5348,267.222,0
4907,5294,246.387,0
4908,5225,228.201,0
4909,5156,211.688,0
4910,5104,194.668,0
4911,5077,174.152,0
4912,5072,147.334,0
4913,5070,112.816,0
4914,5077,71.496,0
4915,5076,26.715,0
4916,5074,-16.435,0
4917,5076,-52.449,0
4918,5083,-76.955,0
4919,5092,-87.931,0
4920,5108,-86.192,0
4921,5117,-74.997,0
4922,5113,-58.926,0
4923,5103,-42.515,0
4924,5087,-29.134,0
4925,5082,-20.397,0
4926,5095,-16.159,0
4927,5119,-14.968,0
4928,5138,-14.775,0
4929,5153,-13.752,0
4930,5170,-10.872,0
4931,5180,-5.926,0
4932,5173,0.930,0
4933,5159,9.542,0
4934,5159,19.730,0
4935,5164,31.076,0
4936,5168,42.783,0
4937,5180,53.671,0
4938,5184,62.363,0
4939,5177,67.714,0
4940,5182,69.286,0
4941,5222,67.783,0
4942,5291,65.431,0
4943,5382,66.069,0
4944,5492,74.564,0
4945,5594,95.630,0
4946,5671,132.491,0
4947,5733,185.851,0
4948,5805,253.650,0
4949,5921,331.983,0
4950,6103,417.032,0
4951,6407,507.397,0
4952,6822,606.104,0
4953,7284,721.562,0
4954,7714,866.455,0
4955,8037,1054.010,0
4956,8164,1292.339,0
4957,8031,1578.470,0
4958,7660,1893.873,0
4959,7113,2203.400,0
4960,6459,2459.096,0
4961,5830,2608.839,0
4962,5314,2608.084,0
4963,4983,2431.892,0
4964,4830,2083.814,0
4965,4841,1598.502,0
4966,4952,1036.598,0
4967,5098,472.823,0
4968,5230,-19.696,0
4969,5323,-384.653,0
4970,5361,-593.198,0
4971,5353,-647.381,0
4972,5302,-576.123,0
4973,5235,-425.578,0
4974,5172,-246.999,0
4975,5129,-85.363,0
4976,5110,28.652,0
4977,5111,81.958,0
4978,5142,77.712,0
4979,5175,30.723,0
4980,5193,-38.568,0
4981,5197,-109.946,0
4982,5186,-167.851,0
4983,5172,-203.643,0
4984,5167,-215.642,0
4985,5169,-207.549,0
4986,5188,-186.102,0
4987,5204,-158.758,0
4988,5205,-131.974,0
4989,5196,-110.328,0
4990,5178,-96.342,0
4991,5157,-90.659,0
4992,5159,-92.339,0
4993,5177,-99.176,0
4994,5205,-108.089,0
4995,5244,-115.699,0
4996,5275,-119.063,0
4997,5285,-116.307,0
4998,5270,-107.041,0
4999,5247,-92.477,0
5000,5233,-75.103,0
5001,5237,-57.878,0
5002,5257,-43.236,0
5003,5287,-32.380,0
5004,5311,-25.139,0
5005,5330,-20.369,0
5006,5334,-16.553,0
5007,5322,-12.333,0
5008,5308,-6.853,0
5009,5311,0.108,0
5010,5316,8.270,0
5011,5341,17.109,0
5012,5375,26.092,0
5013,5410,34.916,0
5014,5422,43.688,0
5015,5409,52.836,0
5016,5393,62.711,0
5017,5395,73.240,0
5018,5421,84.039,0
5019,5458,94.868,0
5020,5489,105.954,0
5021,5508,117.810,0
5022,5513,130.716,0
5023,5504,144.349,0
5024,5468,157.764,0
5025,5454,169.618,0
5026,5474,178.609,0
5027,5504,184.154,0
5028,5555,186.915,0
5029,5598,188.712,0
5030,5623,191.888,0
5031,5631,198.469,0
5032,5619,209.463,0
5033,5613,224.601,0
5034,5626,242.581,0
5035,5664,261.735,0
5036,5726,280.821,0
5037,5779,299.538,0
5038,5808,318.465,0
5039,5817,338.416,0
5040,5811,359.699,0
5041,5800,381.786,0
5042,5811,403.541,0
5043,5834,423.777,0
5044,5861,441.780,0
5045,5897,457.431,0
5046,5926,470.985,0
5047,5932,482.812,0
5048,5923,493.205,0
5049,5900,502.242,0
5050,5903,509.789,0
5051,5922,515.762,0
5052,5963,520.500,0
5053,6014,524.953,0
5054,6049,530.469,0
5055,6068,538.287,0
5056,6057,548.956,0
5057,6050,562.037,0
5058,6062,576.323,0
5059,6086,590.561,0
5060,6124,604.172,0
5061,6167,617.416,0
5062,6216,631.022,0
5063,6244,645.692,0
5064,6256,661.748,0
5065,6248,678.980,0
5066,6235,696.670,0
5067,6232,713.751,0
5068,6235,729.059,0
5069,6256,741.551,0
5070,6293,750.482,0
5071,6309,755.598,0
5072,6319,757.223,0
5073,6318,756.157,0
5074,6306,753.509,0
5075,6299,750.507,0
5076,6297,748.205,0
5077,6296,747.150,0
5078,6313,747.102,0
5079,6331,747.085,0
5080,6339,745.840,0
5081,6324,742.409,0
5082,6295,736.421,0
5083,6254,727.974,0
5084,6224,717.284,0
5085,6193,704.339,0
5086,6172,688.700,0
5087,6140,669.477,0
5088,6101,645.483,0
5089,6050,615.566,0
5090,5967,578.996,0
5091,5875,535.630,0
5092,5792,485.756,0
5093,5734,429.884,0
5094,5696,368.791,0
5095,5675,303.705,0
5096,5638,236.404,0
5097,5586,168.987,0
5098,5516,103.391,0
5099,5429,40.891,0
5100,5365,-18.135,0
5101,5326,-74.036,0
5102,5301,-127.360,0
5103,5285,-178.377,0
5104,5271,-226.991,0
5105,5257,-272.883,0
5106,5242,-315.560,0
5107,5215,-354.253,0
5108,5187,-387.922,0
5109,5173,-415.541,0
5110,5163,-436.532,0
5111,5165,-451.121,0
5112,5164,-460.469,0
5113,5153,-466.505,0
5114,5128,-471.501,0
5115,5092,-477.543,0
5116,5060,-486.058,0
5117,5055,-497.492,0
5118,5080,-511.110,0
5119,5106,-525.026,0
5120,5128,-536.693,0
5121,5136,-543.854,0
5122,5125,-545.443,0
5123,5097,-541.942,0
5124,5075,-535.093,0
5125,5079,-527.114,0
5126,5097,-519.708,0
5127,5122,-513.397,0
5128,5149,-507.594,0
5129,5168,-501.265,0
5130,5165,-493.649,0
5131,5151,-484.668,0
5132,5120,-474.953,0
5133,5100,-465.564,0
5134,5112,-457.551,0
5135,5144,-451.417,0
5136,5188,-446.713,0
5137,5230,-442.090,0
5138,5227,-435.856,0
5139,5213,-426.833,0
5140,5191,-415.027,0
5141,5175,-401.591,0
5142,5181,-388.137,0
5143,5204,-375.914,0
5144,5240,-365.314,0
5145,5257,-355.917,0
5146,5273,-346.997,0
5147,5275,-338.061,0
5148,5256,-329.023,0
5149,5237,-320.081,0
5150,5237,-311.517,0
5151,5251,-303.477,0
5152,5278,-295.794,0
5153,5309,-288.042,0
5154,5333,-279.776,0
5155,5345,-270.727,0
5156,5343,-260.848,0
5157,5337,-250.198,0
5158,5346,-238.774,0
5159,5354,-226.395,0
5160,5371,-212.787,0
5161,5392,-197.927,0
5162,5405,-182.360,0
5163,5398,-167.238,0
5164,5384,-154.078,0
5165,5369,-144.296,0
5166,5358,-138.648,0
5167,5365,-136.845,0
5168,5368,-137.619,0
5169,5373,-139.292,0
5170,5389,-140.580,0
5171,5411,-141.009,0
5172,5425,-140.643,0
5173,5423,-139.473,0
5174,5409,-137.102,0
5175,5407,-132.937,0
5176,5408,-126.589,0
5177,5411,-118.209,0
5178,5426,-108.644,0
5179,5435,-99.312,0
5180,5440,-91.742,0
5181,5432,-86.987,0
5182,5412,-85.262,0
5183,5398,-85.972,0
5184,5407,-88.038,0
5185,5431,-90.211,0
5186,5471,-91.243,0
5187,5509,-89.993,0
5188,5533,-85.545,0
5189,5529,-77.378,0
5190,5499,-65.629,0
5191,5474,-51.327,0
5192,5462,-36.328,0
5193,5482,-22.773,0
5194,5515,-12.293,0
5195,5547,-5.406,0
5196,5564,-1.476,0
5197,5572,0.841,0
5198,5555,2.999,0
5199,5543,6.121,0
5200,5539,10.778,0
5201,5552,17.045,0
5202,5580,24.689,0
5203,5611,33.361,0
5204,5631,42.677,0
5205,5633,52.216,0
5206,5623,61.483,0
5207,5602,69.952,0
5208,5593,77.185,0
5209,5596,82.973,0
5210,5610,87.406,0
5211,5628,90.775,0
5212,5629,93.319,0
5213,5626,94.955,0
5214,5615,95.237,0
5215,5596,93.670,0
5216,5578,90.126,0
5217,5575,85.026,0
5218,5585,79.229,0
5219,5607,73.746,0
5220,5638,69.463,0
5221,5651,66.982,0
5222,5651,66.582,0
5223,5641,68.218,0
5224,5625,71.586,0
5225,5625,76.256,0
5226,5641,81.830,0
5227,5656,88.034,0
5228,5679,94.657,0
5229,5693,101.365,0
5230,5679,107.620,0
5231,5652,112.693,0
5232,5620,115.722,0
5233,5596,115.909,0
5234,5588,112.795,0
5235,5605,106.475,0
5236,5652,97.720,0
5237,5693,88.054,0
5238,5708,79.610,0
5239,5702,74.552,0
5240,5668,74.249,0
5241,5633,78.663,0
5242,5623,86.286,0
5243,5632,94.728,0
5244,5653,101.656,0
5245,5679,105.547,0
5246,5689,105.962,0
5247,5692,103.414,0
5248,5686,99.072,0
5249,5673,94.454,0
5250,5668,91.107,0
5251,5675,90.227,0
5252,5694,92.339,0
5253,5720,97.185,0
5254,5727,103.846,0
5255,5717,110.980,0
5256,5692,117.086,0
5257,5660,120.784,0
5258,5638,121.125,0
5259,5637,117.824,0
5260,5661,111.360,0
5261,5693,102.940,0
5262,5727,94.269,0
5263,5744,87.169,0
5264,5753,83.193,0
5265,5739,83.351,0
5266,5728,87.961,0
5267,5724,96.585,0
5268,5721,108.072,0
5269,5741,120.701,0
5270,5762,132.479,0
5271,5765,141.618,0
5272,5748,146.925,0
5273,5725,147.905,0
5274,5693,144.709,0
5275,5688,138.046,0
5276,5702,129.110,0
5277,5729,119.495,0
5278,5755,110.937,0
5279,5763,104.856,0
5280,5754,101.875,0
5281,5744,101.642,0
5282,5735,103.159,0
5283,5730,105.440,0
5284,5738,107.997,0
5285,5759,110.872,0
5286,5785,114.346,0
5287,5794,118.575,0
5288,5788,123.304,0
5289,5774,127.785,0
5290,5754,131.026,0
5291,5740,132.265,0
5292,5741,131.348,0
5293,5761,128.806,0
5294,5799,125.681,0
5295,5840,123.267,0
5296,5874,122.884,0
5297,5896,125.697,0
5298,5900,132.589,0
5299,5893,143.996,0
5300,5886,159.695,0
5301,5890,178.618,0
5302,5904,198.894,0
5303,5932,218.198,0
5304,5952,234.358,0
5305,5964,245.975,0
5306,5970,252.816,0
5307,5968,255.858,0
5308,5970,256.988,0
5309,5983,258.408,0
5310,6029,262.010,0
5311,6103,269.103,0
5312,6161,280.583,0
5313,6204,297.133,0
5314,6227,319.085,0
5315,6227,346.127,0
5316,6231,377.147,0
5317,6239,410.323,0
5318,6255,443.434,0
5319,6271,474.192,0
5320,6281,500.461,0
5321,6269,520.385,0
5322,6239,532.490,0
5323,6200,535.831,0
5324,6154,530.178,0
5325,6122,516.141,0
5326,6119,495.137,0
5327,6117,469.224,0
5328,6111,440.747,0
5329,6084,411.728,0
5330,6051,383.265,0
5331,6002,355.381,0
5332,5949,327.387,0
5333,5909,298.452,0
5334,5883,268.068,0
5335,5869,236.266,0
5336,5865,203.534,0
5337,5864,170.578,0
5338,5868,138.192,0
5339,5862,107.352,0
5340,5853,79.369,0
5341,5841,55.816,0
5342,5839,38.144,0
5343,5853,27.188,0
5344,5879,22.854,0
5345,5910,24.165,0
5346,5928,29.604,0
5347,5929,37.543,0
5348,5919,46.554,0
5349,5889,55.532,0
5350,5862,63.599,0
5351,5864,69.901,0
5352,5896,73.653,0
5353,5931,74.560,0
5354,5956,73.169,0
5355,5957,70.740,0
5356,5948,68.703,0
5357,5922,68.108,0
5358,5917,69.363,0
5359,5938,72.337,0
5360,5978,76.790,0
5361,6016,82.759,0
5362,6039,90.535,0
5363,6042,100.247,0
5364,6032,111.446,0
5365,6016,123.088,0
5366,6040,133.996,0
5367,6120,143.726,0
5368,6245,153.581,0
5369,6390,167.137,0
5370,6522,189.674,0
5371,6623,226.545,0
5372,6719,281.253,0
5373,6839,354.389,0
5374,6977,444.092,0
5375,7197,547.649,0
5376,7537,663.526,0
5377,7987,793.400,0
5378,8469,943.497,0
5379,8899,1123.887,0
5380,9174,1344.961,0
5381,9219,1611.623,0
5382,8980,1917.028,0
5383,8490,2238.077,0
5384,7809,2534.887,0
5385,7065,2755.541,0
5386,6410,2846.093,0
5387,5899,2763.941,0
5388,5579,2490.826,0
5389,5473,2041.003,0
5390,5519,1461.646,0
5391,5656,824.954,0
5392,5822,213.656,0
5393,5968,-296.354,0
5394,6075,-651.480,0
5395,6137,-829.833,0
5396,6141,-842.502,0
5397,6101,-727.222,0
5398,6040,-537.027,0
5399,5982,-327.279,0
5400,5946,-144.256,0
5401,5937,-17.696,0
5402,5952,41.620,0
5403,5981,39.591,0
5404,6001,-6.675,0
5405,6008,-75.511,0
5406,6011,-146.647,0
5407,5986,-205.132,0
5408,5974,-242.939,0
5409,5980,-258.568,0
5410,6006,-255.265,0
5411,6042,-238.671,0
5412,6058,-214.845,0
5413,6056,-189.155,0
5414,6048,-165.919,0
5415,6031,-148.228,0
5416,6020,-137.667,0
5417,6032,-134.097,0
5418,6059,-135.708,0
5419,6091,-139.489,0
5420,6114,-142.145,0
5421,6133,-141.182,0
5422,6135,-135.634,0
5423,6120,-126.111,0
5424,6096,-114.319,0
5425,6086,-102.391,0
5426,6086,-92.218,0
5427,6091,-84.984,0
5428,6107,-81.092,0
5429,6102,-80.432,0
5430,6091,-82.753,0
5431,6082,-87.886,0
5432,6079,-95.570,0
5433,6084,-104.989,0
5434,6101,-114.504,0
5435,6122,-121.897,0
5436,6151,-125.068,0
5437,6161,-122.816,0
5438,6152,-115.370,0
5439,6131,-104.494,0
5440,6103,-93.031,0
5441,6092,-83.982,0
5442,6099,-79.432,0
5443,6119,-79.810,0
5444,6162,-83.803,0
5445,6201,-88.892,0
5446,6214,-92.244,0
5447,6206,-91.706,0
5448,6187,-86.585,0
5449,6170,-77.776,0
5450,6174,-67.165,0
5451,6194,-56.668,0
5452,6230,-47.426,0
5453,6254,-39.552,0
5454,6269,-32.484,0
5455,6272,-25.631,0
5456,6268,-18.781,0
5457,6261,-12.066,0
5458,6253,-5.662,0
5459,6285,0.459,0
5460,6322,6.714,0
5461,6361,13.951,0
5462,6385,23.140,0
5463,6403,34.830,0
5464,6391,48.786,0
5465,6374,63.998,0
5466,6368,78.979,0
5467,6379,92.290,0
5468,6407,103.113,0
5469,6447,111.545,0
5470,6476,118.462,0
5471,6487,125.024,0
5472,6486,132.088,0
5473,6470,139.858,0
5474,6452,147.921,0
5475,6451,155.536,0
5476,6468,162.017,0
5477,6507,167.079,0
5478,6550,171.049,0
5479,6578,174.805,0
5480,6582,179.429,0
5481,6567,185.685,0
5482,6560,193.642,0
5483,6571,202.776,0
5484,6599,212.481,0
5485,6633,222.556,0
5486,6684,233.285,0
5487,6715,245.166,0
5488,6744,258.588,0
5489,6759,273.651,0
5490,6742,290.173,0
5491,6716,307.634,0
5492,6714,324.988,0
5493,6722,340.703,0
5494,6742,353.183,0
5495,6759,361.241,0
5496,6761,364.357,0
5497,6744,362.660,0
5498,6732,356.782,0
5499,6720,347.773,0
5500,6721,337.089,0
5501,6736,326.464,0
5502,6762,317.569,0
5503,6789,311.614,0
5504,6795,309.047,0
5505,6775,309.407,0
5506,6743,311.330,0
5507,6697,312.805,0
5508,6656,311.642,0
5509,6627,305.937,0
5510,6616,294.401,0
5511,6608,276.542,0
5512,6577,252.640,0
5513,6533,223.428,0
5514,6470,189.677,0
5515,6384,151.934,0
5516,6296,110.419,0
5517,6218,64.977,0
5518,6148,15.139,0
5519,6099,-39.672,0
5520,6047,-99.830,0
5521,5988,-165.190,0
5522,5931,-234.883,0
5523,5871,-307.239,0
5524,5824,-379.813,0
5525,5799,-449.585,0
5526,5784,-513.368,0
5527,5775,-568.435,0
5528,5749,-613.248,0
5529,5706,-648.086,0
5530,5656,-675.178,0
5531,5606,-698.097,0
5532,5558,-720.557,0
5533,5530,-745.185,0
5534,5522,-772.827,0
5535,5534,-802.526,0
5536,5557,-832.025,0
5537,5571,-858.553,0
5538,5559,-879.641,0
5539,5530,-893.857,0
5540,5495,-901.216,0
5541,5468,-903.079,0
5542,5463,-901.580,0
5543,5485,-898.830,0
5544,5521,-896.214,0
5545,5556,-894.008,0
5546,5573,-891.473,0
5547,5570,-887.353,0
5548,5554,-880.522,0
5549,5537,-870.471,0
5550,5534,-857.464,0
5551,5535,-842.410,0
5552,5543,-826.644,0
5553,5556,-811.728,0
5554,5567,-799.182,0
5555,5557,-790.081,0
5556,5519,-784.785,0
5557,5489,-783.032,0
5558,5482,-784.200,0
5559,5501,-787.327,0
5560,5532,-790.988,0
5561,5569,-793.377,0
5562,5587,-792.738,0
5563,5570,-787.968,0
5564,5528,-779.175,0
5565,5478,-767.906,0
5566,5451,-756.782,0
5567,5450,-748.545,0
5568,5465,-744.963,0
5569,5492,-746.225,0
5570,5527,-751.032,0
5571,5516,-757.184,0
5572,5513,-762.386,0
5573,5500,-764.931,0
5574,5487,-763.889,0
5575,5484,-758.973,0
5576,5491,-750.454,0
5577,5506,-739.163,0
5578,5515,-726.452,0
5579,5501,-714.047,0
5580,5470,-703.828,0
5581,5423,-697.553,0
5582,5379,-696.536,0
5583,5369,-701.292,0
5584,5387,-711.201,0
5585,5431,-724.305,0
5586,5472,-737.528,0
5587,5494,-747.423,0
5588,5491,-751.212,0
5589,5482,-747.627,0
5590,5456,-737.109,0
5591,5433,-721.428,0
5592,5412,-703.135,0
5593,5405,-685.120,0
5594,5417,-670.203,0
5595,5437,-660.596,0
5596,5447,-657.274,0
5597,5442,-659.601,0
5598,5418,-665.531,0
5599,5393,-672.344,0
5600,5381,-677.571,0
5601,5391,-679.676,0
5602,5406,-678.253,0
5603,5420,-673.862,0
5604,5423,-667.713,0
5605,5403,-661.281,0
5606,5364,-655.954,0
5607,5327,-652.808,0
5608,5319,-652.459,0
5609,5331,-654.837,0
5610,5351,-659.046,0
5611,5377,-663.587,0
5612,5372,-666.945,0
5613,5356,-668.226,0
5614,5323,-667.509,0
5615,5279,-665.724,0
5616,5249,-664.204,0
5617,5235,-664.196,0
5618,5235,-666.514,0
5619,5251,-671.391,0
5620,5279,-678.482,0
5621,5299,-686.821,0
5622,5300,-694.786,0
5623,5283,-700.349,0
5624,5255,-701.681,0
5625,5243,-697.858,0
5626,5238,-689.270,0
5627,5245,-677.543,0
5628,5262,-665.065,0
5629,5253,-654.288,0
5630,5221,-647.132,0
5631,5179,-644.746,0
5632,5145,-647.497,0
5633,5141,-654.905,0
5634,5163,-665.506,0
5635,5206,-676.869,0
5636,5248,-685.990,0
5637,5260,-690.059,0
5638,5253,-687.371,0
5639,5232,-677.931,0
5640,5206,-663.353,0
5641,5188,-646.148,0
5642,5184,-628.886,0
5643,5186,-613.623,0
5644,5197,-601.732,0
5645,5207,-593.979,0
5646,5204,-590.565,0
5647,5187,-591.086,0
5648,5165,-594.537,0
5649,5137,-599.462,0
5650,5127,-604.292,0
5651,5138,-607.750,0
5652,5153,-609.109,0
5653,5172,-608.245,0
5654,5189,-605.530,0
5655,5195,-601.500,0
5656,5192,-596.420,0
5657,5180,-590.048,0
5658,5164,-581.801,0
5659,5162,-571.274,0
5660,5183,-558.726,0
5661,5212,-545.103,0
5662,5220,-531.629,0
5663,5212,-519.403,0
5664,5189,-509.226,0
5665,5169,-501.539,0
5666,5169,-496.270,0
5667,5176,-492.698,0
5668,5195,-489.557,0
5669,5224,-485.481,0
5670,5243,-479.518,0
5671,5245,-471.388,0
5672,5230,-461.482,0
5673,5209,-450.651,0
5674,5189,-439.868,0
5675,5196,-429.891,0
5676,5213,-421.020,0
5677,5241,-413.043,0
5678,5265,-405.438,0
5679,5270,-397.693,0
5680,5251,-389.596,0
5681,5215,-381.403,0
5682,5187,-373.820,0
5683,5182,-367.703,0
5684,5198,-363.570,0
5685,5230,-361.214,0
5686,5265,-359.682,0
5687,5291,-357.609,0
5688,5303,-353.647,0
5689,5295,-346.796,0
5690,5287,-336.566,0
5691,5286,-322.993,0
5692,5294,-306.546,0
5693,5315,-288.036,0
5694,5354,-268.534,0
5695,5387,-249.170,0
5696,5397,-230.811,0
5697,5394,-213.886,0
5698,5376,-198.443,0
5699,5359,-184.308,0
5700,5366,-171.241,0
5701,5389,-159.011,0
5702,5426,-147.343,0
5703,5460,-135.889,0
5704,5469,-124.300,0
5705,5458,-112.415,0
5706,5431,-100.445,0
5707,5404,-88.996,0
5708,5393,-78.868,0
5709,5408,-70.733,0
5710,5439,-64.818,0
5711,5473,-60.739,0
5712,5495,-57.619,0
5713,5501,-54.379,0
5714,5489,-50.063,0
5715,5463,-44.065,0
5716,5449,-36.274,0
5717,5458,-27.082,0
5718,5485,-17.173,0
5719,5517,-7.207,0
5720,5549,2.393,0
5721,5563,11.507,0
5722,5560,20.306,0
5723,5525,29.117,0
5724,5501,38.127,0
5725,5514,47.149,0
5726,5550,55.838,0
5727,5594,64.177,0
5728,5630,72.690,0
5729,5639,82.127,0
5730,5634,92.941,0
5731,5606,104.958,0
5732,5585,117.411,0
5733,5588,129.280,0
5734,5617,139.781,0
5735,5662,148.804,0
5736,5714,157.023,0
5737,5749,165.642,0
5738,5759,175.941,0
5739,5758,188.810,0
5740,5765,204.537,0
5741,5790,223.004,0
5742,5838,244.106,0
5743,5899,268.016,0
5744,5961,295.091,0
5745,6005,325.496,0
5746,6014,358.777,0
5747,6003,393.608,0
5748,5985,427.888,0
5749,5977,459.244,0
5750,5985,485.743,0
5751,6015,506.408,0
5752,6071,521.388,0
5753,6129,531.888,0
5754,6167,539.965,0
5755,6185,548.095,0
5756,6197,558.589,0
5757,6208,573.133,0
5758,6242,592.617,0
5759,6290,617.183,0
5760,6331,646.308,0
5761,6344,678.698,0
5762,6307,711.940,0
5763,6252,742.260,0
5764,6187,764.900,0
5765,6126,775.316,0
5766,6085,770.627,0
5767,6063,750.526,0
5768,6064,717.294,0
5769,6077,675.056,0
5770,6075,628.721,0
5771,6052,582.928,0
5772,6005,541.185,0
5773,5938,505.321,0
5774,5871,475.322,0
5775,5820,449.520,0
5776,5770,425.098,0
5777,5735,398.745,0
5778,5698,367.344,0
5779,5641,328.640,0
5780,5571,281.731,0
5781,5517,227.247,0
5782,5481,167.367,0
5783,5472,105.698,0
5784,5475,46.773,0
5785,5491,-4.940,0
5786,5504,-46.174,0
5787,5497,-75.629,0
5788,5476,-94.095,0
5789,5444,-103.968,0
5790,5415,-108.363,0
5791,5400,-110.207,0
5792,5398,-111.626,0
5793,5400,-113.830,0
5794,5409,-117.413,0
5795,5409,-122.715,0
5796,5402,-129.942,0
5797,5380,-139.004,0
5798,5352,-149.329,0
5799,5320,-159.925,0
5800,5305,-169.760,0
5801,5305,-178.227,0
5802,5311,-185.392,0
5803,5306,-191.936,0
5804,5291,-198.916,0
5805,5272,-207.373,0
5806,5246,-217.859,0
5807,5213,-230.092,0
5808,5203,-243.060,0
5809,5235,-255.413,0
5810,5317,-265.607,0
5811,5430,-271.577,0
5812,5562,-270.246,0
5813,5689,-257.417,0
5814,5795,-228.324,0
5815,5890,-178.845,0
5816,6038,-106.781,0
5817,6250,-12.266,0
5818,6521,103.180,0
5819,6888,238.366,0
5820,7343,394.184,0
5821,7845,574.946,0
5822,8330,788.507,0
5823,8706,1044.188,0
5824,8888,1348.197,0
5825,8795,1697.415,0
5826,8405,2073.505,0
5827,7716,2439.816,0
5828,6817,2743.141,0
5829,5905,2921.365,0
5830,5132,2916.657,0
5831,4626,2691.644,0
5832,4377,2243.515,0
5833,4359,1610.346,0
5834,4494,866.351,0
5835,4706,107.064,0
5836,4917,-570.952,0
5837,5067,-1089.955,0
5838,5141,-1405.362,0
5839,5149,-1511.556,0
5840,5108,-1438.617,0
5841,5049,-1241.788,0
5842,5009,-987.071,0
5843,4989,-736.649,0
5844,4988,-537.362,0
5845,4991,-414.446,0
5846,4978,-371.198,0
5847,4951,-393.653,0
5848,4919,-458.182,0
5849,4898,-539.425,0
5850,4910,-616.363,0
5851,4932,-675.399,0
5852,4957,-710.637,0
5853,4975,-722.398,0
5854,4966,-715.032,0
5855,4943,-694.832,0
5856,4915,-668.433,0
5857,4888,-641.760,0
5858,4885,-619.377,0
5859,4913,-604.085,0
5860,4953,-596.603,0
5861,4999,-595.456,0
5862,5018,-597.354,0
5863,5006,-598.195,0
5864,4989,-594.469,0
5865,4959,-584.452,0
5866,4939,-568.686,0
5867,4939,-549.690,0
5868,4957,-531.009,0
5869,5000,-515.869,0
5870,5053,-505.837,0
5871,5086,-500.015,0
5872,5096,-495.268,0
5873,5080,-487.581,0
5874,5077,-473.883,0
5875,5084,-453.323,0
5876,5115,-427.369,0
5877,5150,-398.902,0
5878,5172,-370.948,0
5879,5170,-345.750,0
5880,5161,-324.469,0
5881,5143,-307.328,0
5882,5128,-293.912,0
5883,5128,-283.511,0
5884,5151,-275.400,0
5885,5191,-268.889,0
5886,5227,-263.145,0
5887,5238,-257.075,0
5888,5236,-249.520,0
5889,5222,-239.656,0
5890,5198,-227.309,0
5891,5201,-213.063,0
5892,5227,-198.056,0
5893,5265,-183.452,0
5894,5304,-169.900,0
5895,5322,-157.332,0
5896,5319,-145.184,0
5897,5307,-132.842,0
5898,5282,-120.016,0
5899,5276,-106.900,0
5900,5286,-94.094,0
5901,5308,-82.341,0
5902,5341,-72.209,0
5903,5376,-63.835,0
5904,5407,-56.717,0
5905,5420,-49.623,0
5906,5409,-40.832,0
5907,5398,-28.819,0
5908,5409,-13.006,0
5909,5429,5.962,0
5910,5457,26.535,0
5911,5484,46.837,0
5912,5499,65.233,0
5913,5507,80.770,0
5914,5506,93.405,0
5915,5504,103.952,0
5916,5516,113.738,0
5917,5540,124.112,0
5918,5575,136.033,0
5919,5604,149.854,0
5920,5618,165.296,0
5921,5619,181.564,0
5922,5623,197.628,0
5923,5623,212.665,0
5924,5634,226.438,0
5925,5665,239.362,0
5926,5705,252.276,0
5927,5752,266.125,0
5928,5797,281.696,0
5929,5823,299.502,0
5930,5833,319.766,0
5931,5830,342.382,0
5932,5837,366.845,0
