sample,adc,filtered,lead_off
0,6123,-0.000,0
1,6215,0.202,0
2,6333,1.809,0
3,6449,8.030,0
4,6476,23.824,0
5,6407,53.461,0
6,6343,97.095,0
7,6327,149.130,0
8,6337,200.140,0
9,6363,241.002,0
10,6352,266.268,0
11,6233,274.788,0
12,6091,267.587,0
13,5954,245.034,0
14,5869,205.878,0
15,5844,148.823,0
16,5856,75.157,0
17,5920,-9.560,0
18,6036,-95.642,0
19,6091,-171.018,0
20,6124,-224.170,0
21,6156,-247.475,0
22,6184,-239.212,0
23,6175,-203.396,0
24,6142,-148.309,0
25,6082,-84.869,0
26,5991,-25.088,0
27,5900,19.470,0
28,5877,39.518,0
29,5940,30.421,0
30,6041,-5.386,0
31,6142,-57.657,0
32,6256,-110.574,0
33,6307,-147.367,0
34,6311,-155.470,0
35,6311,-130.380,0
36,6302,-76.627,0
37,6314,-5.480,0
38,6331,69.337,0
39,6343,135.884,0
40,6360,186.664,0
41,6376,219.266,0
42,6396,235.505,0
43,6409,239.857,0
44,6424,237.759,0
45,6465,234.292,0
46,6509,233.538,0
47,6511,238.440,0
48,6464,250.364,0
49,6383,268.132,0
50,6290,287.353,0
51,6229,301.067,0
52,6172,301.869,0
53,6154,284.559,0
54,6135,248.038,0
55,6125,195.684,0
56,6126,134.230,0
57,6084,71.726,0
58,6065,15.291,0
59,6028,-30.615,0
60,5996,-64.799,0
61,5959,-88.919,0
62,5901,-106.544,0
63,5803,-122.248,0
64,5684,-141.103,0
65,5565,-168.374,0
66,5497,-208.777,0
67,5479,-264.979,0
68,5462,-335.948,0
69,5438,-416.519,0
70,5444,-498.795,0
71,5504,-574.295,0
72,5577,-635.358,0
73,5648,-675.696,0
74,5668,-691.019,0
75,5635,-680.271,0
76,5586,-646.936,0
77,5554,-599.179,0
78,5527,-548.040,0
79,5524,-504.336,0
80,5536,-475.733,0
81,5539,-465.068,0
82,5515,-470.458,0
83,5472,-487.012,0
84,5430,-509.247,0
85,5413,-532.901,0
86,5410,-555.447,0
87,5407,-575.589,0
88,5406,-592.637,0
89,5427,-606.176,0
90,5453,-615.828,0
91,5461,-620.999,0
92,5467,-620.929,0
93,5464,-615.134,0
94,5469,-603.877,0
95,5467,-588.303,0
96,5466,-570.270,0
97,5492,-551.939,0
98,5546,-535.052,0
99,5641,-519.918,0
100,5768,-504.481,0
101,5913,-484.061,0
102,6015,-452.207,0
103,6084,-402.819,0
104,6178,-332.727,0
105,6312,-242.971,0
106,6525,-137.659,0
107,6822,-20.949,0
108,7225,106.307,0
109,7701,248.805,0
110,8192,416.902,0
111,8634,624.056,0
112,8942,881.893,0
113,9046,1194.125,0
114,8853,1550.939,0
115,8333,1925.338,0
116,7547,2272.734,0
117,6622,2535.160,0
118,5779,2651.012,0
119,5152,2569.532,0
120,4758,2266.456,0
121,4577,1754.935,0
122,4562,1086.710,0
123,4669,342.641,0
124,4842,-384.068,0
125,5014,-1006.705,0
126,5152,-1461.201,0
127,5233,-1716.332,0
128,5271,-1776.318,0
129,5288,-1675.893,0
130,5292,-1469.539,0
131,5278,-1217.982,0
132,5226,-975.647,0
133,5181,-782.007,0
134,5165,-657.831,0
135,5133,-605.759,0
136,5103,-614.290,0
137,5098,-663.932,0
138,5119,-733.426,0
139,5153,-804.176,0
140,5186,-862.456,0
141,5223,-899.936,0
142,5257,-913.187,0
143,5270,-902.720,0
144,5281,-872.038,0
145,5259,-826.923,0
146,5216,-774.863,0
147,5192,-724.322,0
148,5176,-683.422,0
149,5174,-658.043,0
150,5187,-650.186,0
151,5201,-657.441,0
152,5229,-673.836,0
153,5236,-691.763,0
154,5237,-704.321,0
155,5259,-707.260,0
156,5301,-699.590,0
157,5343,-682.663,0
158,5362,-658.638,0
159,5366,-629.523,0
160,5378,-597.078,0
161,5374,-563.064,0
162,5369,-529.419,0
163,5369,-498.300,0
164,5372,-471.881,0
165,5396,-451.803,0
166,5411,-438.472,0
167,5407,-430.710,0
168,5406,-426.160,0
169,5404,-422.237,0
170,5421,-416.949,0
171,5426,-409.246,0
172,5421,-399.043,0
173,5437,-387.133,0
174,5457,-374.776,0
175,5484,-362.921,0
176,5505,-351.531,0
177,5499,-339.593,0
178,5465,-325.941,0
179,5416,-310.526,0
180,5387,-295.224,0
181,5389,-283.408,0
182,5409,-278.300,0
183,5399,-281.218,0
184,5398,-290.971,0
185,5399,-304.575,0
186,5404,-318.428,0
187,5419,-329.262,0
188,5433,-334.747,0
189,5444,-333.783,0
190,5455,-326.535,0
191,5477,-314.190,0
192,5474,-298.429,0
193,5466,-280.957,0
194,5478,-263.311,0
195,5503,-246.669,0
196,5529,-231.497,0
197,5552,-217.395,0
198,5591,-203.355,0
199,5621,-188.167,0
200,5619,-170.748,0
201,5607,-150.611,0
202,5608,-128.319,0
203,5608,-105.439,0
204,5617,-83.921,0
205,5611,-65.440,0
206,5616,-51.093,0
207,5638,-41.325,0
208,5675,-35.718,0
209,5713,-32.669,0
210,5751,-29.402,0
211,5795,-22.557,0
212,5841,-9.078,0
213,5884,12.997,0
214,5923,44.081,0
215,5951,82.956,0
216,5963,127.030,0
217,5968,172.844,0
218,5985,216.728,0
219,5995,255.600,0
220,6019,287.637,0
221,6040,312.528,0
222,6081,331.303,0
223,6113,345.935,0
224,6142,358.856,0
225,6169,372.404,0
226,6172,388.305,0
227,6178,407.274,0
228,6166,428.799,0
229,6164,451.214,0
230,6162,472.100,0
231,6168,488.970,0
232,6193,500.048,0
233,6228,504.970,0
234,6261,505.172,0
235,6288,503.635,0
236,6306,503.974,0
237,6304,509.180,0
238,6240,520.390,0
239,6148,535.845,0
240,6046,550.492,0
241,5946,556.864,0
242,5832,547.161,0
243,5729,515.492,0
244,5643,459.393,0
245,5588,380.406,0
246,5575,283.921,0
247,5586,178.437,0
248,5568,74.211,0
249,5507,-18.940,0
250,5392,-94.400,0
251,5269,-150.984,0
252,5160,-193.317,0
253,5024,-230.033,0
254,4881,-270.956,0
255,4794,-324.595,0
256,4756,-396.111,0
257,4749,-485.626,0
258,4768,-587.595,0
259,4786,-691.914,0
260,4764,-786.606,0
261,4716,-861.345,0
262,4671,-910.600,0
263,4636,-934.987,0
264,4611,-940.293,0
265,4581,-934.999,0
266,4552,-927.629,0
267,4527,-924.814,0
268,4509,-930.243,0
269,4475,-944.477,0
270,4449,-965.579,0
271,4440,-990.289,0
272,4442,-1015.101,0
273,4470,-1036.868,0
274,4535,-1052.905,0
275,4570,-1060.756,0
276,4597,-1058.210,0
277,4593,-1043.937,0
278,4557,-1018.406,0
279,4542,-984.441,0
280,4526,-946.864,0
281,4531,-911.196,0
282,4541,-882.048,0
283,4519,-862.007,0
284,4529,-851.437,0
285,4558,-848.811,0
286,4599,-850.955,0
287,4661,-853.277,0
288,4703,-850.465,0
289,4716,-837.823,0
290,4713,-812.930,0
291,4733,-776.727,0
292,4765,-733.097,0
293,4789,-687.059,0
294,4738,-643.001,0
295,4673,-604.288,0
296,4598,-573.987,0
297,4567,-555.289,0
298,4552,-550.766,0
299,4519,-561.098,0
300,4493,-584.524,0
301,4495,-617.339,0
302,4505,-654.668,0
303,4544,-691.000,0
304,4595,-720.639,0
305,4672,-738.254,0
306,4748,-739.507,0
307,4768,-721.818,0
308,4765,-685.365,0
309,4734,-633.921,0
310,4679,-574.678,0
311,4580,-516.956,0
312,4505,-470.448,0
313,4522,-443.195,0
314,4608,-439.078,0
315,4724,-455.558,0
316,4864,-483.318,0
317,4988,-508.484,0
318,5010,-516.677,0
319,4978,-497.727,0
320,4919,-449.456,0
321,4839,-378.687,0
322,4726,-299.160,0
323,4675,-227.603,0
324,4652,-179.189,0
325,4641,-163.382,0
326,4693,-181.480,0
327,4798,-226.362,0
328,4948,-283.929,0
329,5083,-335.900,0
330,5192,-363.967,0
331,5253,-354.575,0
332,5178,-303.004,0
333,5061,-215.609,0
334,4945,-109.178,0
335,4897,-6.515,0
336,4982,70.957,0
337,5095,110.814,0
338,5132,113.692,0
339,5120,91.252,0
340,5135,59.550,0
341,5173,32.578,0
342,5185,19.160,0
343,5194,22.714,0
344,5229,42.230,0
345,5271,73.843,0
346,5316,112.718,0
347,5313,154.449,0
348,5269,195.332,0
349,5220,231.762,0
350,5210,259.919,0
351,5220,276.643,0
352,5269,281.024,0
353,5309,275.410,0
354,5365,265.005,0
355,5426,256.315,0
356,5465,255.325,0
357,5471,266.025,0
358,5419,289.291,0
359,5389,322.323,0
360,5397,359.282,0
361,5332,393.225,0
362,5251,417.917,0
363,5249,428.520,0
364,5326,422.411,0
365,5476,401.104,0
366,5569,371.776,0
367,5583,345.981,0
368,5580,335.246,0
369,5547,346.195,0
370,5524,378.171,0
371,5536,424.146,0
372,5559,473.969,0
373,5579,518.161,0
374,5601,550.597,0
375,5578,569.298,0
376,5541,575.573,0
377,5513,572.296,0
378,5504,562.454,0
379,5529,548.667,0
380,5543,533.364,0
381,5551,518.893,0
382,5530,507.098,0
383,5543,498.744,0
384,5592,493.632,0
385,5647,491.677,0
386,5699,493.977,0
387,5738,502.751,0
388,5747,520.081,0
389,5728,546.300,0
390,5707,578.946,0
391,5691,613.015,0
392,5646,642.457,0
393,5624,661.988,0
394,5616,668.435,0
395,5615,661.422,0
396,5633,643.329,0
397,5666,618.542,0
398,5691,592.384,0
399,5707,569.981,0
400,5741,555.275,0
401,5770,550.540,0
402,5762,556.391,0
403,5732,571.721,0
404,5715,593.452,0
405,5735,616.876,0
406,5743,637.043,0
407,5725,650.350,0
408,5705,655.188,0
409,5698,651.637,0
410,5715,641.085,0
411,5743,626.126,0
412,5784,610.391,0
413,5808,597.926,0
414,5781,592.039,0
415,5748,593.884,0
416,5691,601.597,0
417,5630,610.655,0
418,5606,615.378,0
419,5594,610.954,0
420,5607,595.219,0
421,5645,569.420,0
422,5716,537.888,0
423,5781,507.042,0
424,5812,483.932,0
425,5824,474.363,0
426,5833,481.150,0
427,5859,503.441,0
428,5904,537.482,0
429,5953,578.272,0
430,5937,621.019,0
431,5891,661.477,0
432,5820,695.365,0
433,5758,718.066,0
434,5741,725.450,0
435,5772,715.595,0
436,5837,690.441,0
437,5893,656.150,0
438,5977,621.674,0
439,6030,596.233,0
440,6061,586.891,0
441,6074,596.880,0
442,6087,625.101,0
443,6100,666.907,0
444,6096,715.694,0
445,6086,764.431,0
446,6065,806.680,0
447,6032,837.205,0
448,6019,852.472,0
449,6019,851.234,0
450,5987,835.005,0
451,5903,807.582,0
452,5840,773.318,0
453,5810,735.317,0
454,5809,695.043,0
455,5796,653.227,0
456,5758,610.742,0
457,5701,568.597,0
458,5660,527.416,0
459,5612,487.242,0
460,5571,447.824,0
461,5532,408.924,0
462,5498,370.340,0
463,5463,331.775,0
464,5442,292.796,0
465,5427,253.094,0
466,5408,212.956,0
467,5370,173.514,0
468,5339,136.404,0
469,5316,103.055,0
470,5301,74.157,0
471,5292,49.539,0
472,5273,28.331,0
473,5261,9.272,0
474,5264,-8.852,0
475,5274,-26.586,0
476,5295,-43.269,0
477,5295,-57.076,0
478,5295,-65.835,0
479,5306,-68.190,0
480,5306,-64.330,0
481,5319,-55.880,0
482,5326,-45.188,0
483,5335,-34.397,0
484,5318,-24.799,0
485,5315,-16.812,0
486,5326,-10.348,0
487,5338,-5.100,0
488,5346,-0.643,0
489,5327,3.353,0
490,5321,6.797,0
491,5297,9.068,0
492,5269,9.278,0
493,5226,6.582,0
494,5231,0.339,0
495,5263,-9.572,0
496,5313,-22.128,0
497,5360,-34.809,0
498,5401,-44.026,0
499,5460,-46.089,0
500,5559,-37.935,0
501,5675,-17.112,0
502,5799,18.607,0
503,5949,71.226,0
504,6119,142.130,0
505,6345,231.869,0
506,6634,340.637,0
507,7041,469.575,0
508,7546,622.547,0
509,8061,807.329,0
510,8493,1034.514,0
511,8821,1313.259,0
512,8984,1645.319,0
513,8889,2019.955,0
514,8503,2411.238,0
515,7809,2778.144,0
516,6912,3067.787,0
517,6033,3222.576,0
518,5274,3191.659,0
519,4763,2944.727,0
520,4518,2483.699,0
521,4487,1847.600,0
522,4645,1108.140,0
523,4861,356.728,0
524,5023,-313.744,0
525,5109,-827.910,0
526,5149,-1142.802,0
527,5166,-1254.173,0
528,5164,-1192.820,0
529,5131,-1013.250,0
530,5076,-779.142,0
531,5019,-549.730,0
532,4968,-369.651,0
533,4951,-263.404,0
534,5007,-234.516,0
535,5052,-268.752,0
536,5082,-340.603,0
537,5110,-421.707,0
538,5079,-488.770,0
539,5022,-528.671,0
540,4995,-539.708,0
541,5021,-528.909,0
542,5065,-506.684,0
543,5117,-481.606,0
544,5111,-457.902,0
545,5070,-436.331,0
546,5015,-416.963,0
547,4969,-401.400,0
548,4959,-392.849,0
549,4988,-394.227,0
550,5016,-405.805,0
551,5049,-424.137,0
552,5061,-443.078,0
553,5070,-456.211,0
554,5085,-459.266,0
555,5141,-451.172,0
556,5198,-433.319,0
557,5237,-407.869,0
558,5257,-376.560,0
559,5265,-340.662,0
560,5272,-301.558,0
561,5274,-261.244,0
562,5271,-222.380,0
563,5272,-187.967,0
564,5275,-160.725,0
565,5295,-142.295,0
566,5320,-132.524,0
567,5325,-129.235,0
568,5306,-128.925,0
569,5294,-128.260,0
570,5299,-125.406,0
571,5324,-120.294,0
572,5359,-113.807,0
573,5398,-106.631,0
574,5428,-98.524,0
575,5460,-88.280,0
576,5476,-74.279,0
577,5490,-55.273,0
578,5503,-31.098,0
579,5527,-2.944,0
580,5560,27.012,0
581,5600,56.456,0
582,5619,83.799,0
583,5625,108.521,0
584,5641,130.879,0
585,5653,151.440,0
586,5672,170.785,0
587,5687,189.345,0
588,5708,207.263,0
589,5742,224.407,0
590,5802,240.708,0
591,5861,256.769,0
592,5919,274.288,0
593,5953,295.744,0
594,5922,323.249,0
595,5861,356.851,0
596,5815,393.260,0
597,5801,426.265,0
598,5841,449.126,0
599,5890,457.722,0
600,5934,452.587,0
601,5989,438.757,0
602,6037,423.844,0
603,6082,415.572,0
604,6118,419.676,0
605,6144,438.615,0
606,6165,471.265,0
607,6178,513.542,0
608,6187,559.675,0
609,6193,603.706,0
610,6208,640.827,0
611,6272,668.396,0
612,6352,686.667,0
613,6429,698.965,0
614,6471,710.733,0
615,6489,727.436,0
616,6496,752.308,0
617,6499,785.172,0
618,6497,822.812,0
619,6506,860.388,0
620,6525,893.151,0
621,6567,917.871,0
622,6595,933.669,0
623,6620,941.955,0
624,6636,945.566,0
625,6638,947.576,0
626,6631,950.296,0
627,6628,954.700,0
628,6638,960.424,0
629,6651,966.289,0
630,6679,971.045,0
631,6717,974.012,0
632,6741,975.448,0
633,6741,976.432,0
634,6713,978.159,0
635,6670,980.939,0
636,6640,983.575,0
637,6623,983.597,0
638,6607,978.259,0
639,6574,965.573,0
640,6510,944.661,0
641,6408,915.296,0
642,6292,877.077,0
643,6202,828.978,0
644,6135,769.832,0
645,6058,699.441,0
646,6010,619.286,0
647,5971,532.415,0
648,5897,442.810,0
649,5789,354.337,0
650,5680,269.437,0
651,5570,188.353,0
652,5510,109.535,0
653,5455,31.028,0
654,5402,-48.150,0
655,5367,-127.503,0
656,5336,-205.413,0
657,5284,-279.740,0
658,5218,-348.488,0
659,5163,-410.459,0
660,5137,-465.489,0
661,5126,-514.006,0
662,5111,-556.369,0
663,5114,-592.640,0
664,5121,-622.775,0
665,5128,-646.770,0
666,5116,-664.665,0
667,5090,-676.627,0
668,5055,-683.247,0
669,5046,-685.780,0
670,5067,-685.936,0
671,5087,-685.197,0
672,5088,-684.253,0
673,5077,-683.145,0
674,5053,-681.870,0
675,5023,-680.816,0
676,5012,-680.705,0
677,5025,-682.094,0
678,5057,-684.745,0
679,5093,-687.303,0
680,5139,-687.579,0
681,5168,-683.265,0
682,5185,-672.665,0
683,5197,-655.206,0
684,5175,-631.572,0
685,5157,-603.635,0
686,5134,-574.277,0
687,5125,-547.001,0
688,5133,-525.222,0
689,5125,-511.429,0
690,5123,-506.583,0
691,5138,-509.932,0
692,5161,-519.049,0
693,5195,-530.017,0
694,5245,-538.031,0
695,5330,-538.308,0
696,5394,-526.953,0
697,5410,-501.780,0
698,5324,-463.433,0
699,5223,-416.585,0
700,5149,-369.934,0
701,5100,-333.951,0
702,5093,-317.188,0
703,5139,-323.172,0
704,5195,-349.178,0
705,5263,-387.128,0
706,5297,-426.137,0
707,5311,-455.741,0
708,5322,-468.661,0
709,5283,-462.247,0
710,5227,-438.669,0
711,5212,-404.206,0
712,5228,-367.441,0
713,5278,-336.468,0
714,5340,-316.202,0
715,5361,-307.048,0
716,5357,-305.528,0
717,5320,-306.467,0
718,5289,-305.477,0
719,5291,-300.488,0
720,5311,-291.785,0
721,5317,-281.041,0
722,5333,-270.321,0
723,5346,-261.455,0
724,5365,-255.483,0
725,5374,-252.151,0
726,5361,-249.866,0
727,5340,-246.449,0
728,5315,-240.421,0
729,5325,-231.960,0
730,5349,-222.815,0
731,5379,-215.182,0
732,5387,-210.404,0
733,5392,-208.342,0
734,5380,-207.584,0
735,5349,-206.239,0
736,5332,-202.962,0
737,5341,-197.692,0
738,5367,-191.552,0
739,5399,-186.003,0
740,5440,-181.868,0
741,5474,-178.686,0
742,5484,-174.644,0
743,5481,-167.245,0
744,5464,-154.524,0
745,5442,-136.226,0
746,5406,-114.406,0
747,5366,-93.241,0
748,5335,-78.049,0
749,5326,-73.660,0
750,5325,-82.575,0
751,5329,-103.754,0
752,5354,-132.714,0
753,5397,-162.812,0
754,5445,-187.033,0
755,5477,-199.722,0
756,5491,-197.938,0
757,5493,-182.096,0
758,5491,-155.593,0
759,5478,-123.545,0
760,5445,-91.289,0
761,5429,-63.385,0
762,5447,-43.101,0
763,5486,-31.957,0
764,5542,-29.256,0
765,5562,-32.098,0
766,5552,-36.295,0
767,5507,-38.028,0
768,5471,-35.417,0
769,5447,-29.092,0
770,5437,-21.547,0
771,5433,-15.889,0
772,5461,-14.671,0
773,5465,-19.075,0
774,5460,-28.600,0
775,5477,-41.349,0
776,5487,-54.525,0
777,5506,-64.896,0
778,5519,-69.446,0
779,5519,-66.288,0
780,5515,-55.499,0
781,5520,-39.360,0
782,5512,-21.645,0
783,5500,-6.281,0
784,5503,3.932,0
785,5489,8.059,0
786,5478,6.970,0
787,5494,2.565,0
788,5531,-3.067,0
789,5565,-7.980,0
790,5563,-10.471,0
791,5517,-9.500,0
792,5467,-5.417,0
793,5425,-0.260,0
794,5414,2.929,0
795,5450,1.520,0
796,5503,-5.275,0
797,5544,-15.765,0
798,5554,-26.428,0
799,5559,-33.505,0
800,5562,-34.465,0
801,5557,-28.514,0
802,5550,-16.340,0
803,5542,0.298,0
804,5541,18.864,0
805,5554,36.398,0
806,5537,50.063,0
807,5491,57.617,0
808,5430,57.496,0
809,5395,48.750,0
810,5402,31.387,0
811,5447,7.138,0
812,5486,-20.114,0
813,5551,-44.956,0
814,5606,-61.894,0
815,5631,-66.793,0
816,5594,-57.934,0
817,5536,-36.758,0
818,5511,-7.887,0
819,5516,22.191,0
820,5542,47.416,0
821,5587,64.152,0
822,5629,71.928,0
823,5653,72.966,0
824,5656,70.945,0
825,5653,69.624,0
826,5653,71.835,0
827,5669,79.109,0
828,5691,91.750,0
829,5725,109.074,0
830,5768,129.666,0
831,5796,151.761,0
832,5798,173.691,0
833,5775,194.107,0
834,5717,211.873,0
835,5674,225.732,0
836,5668,234.176,0
837,5700,235.945,0
838,5769,230.987,0
839,5844,221.248,0
840,5910,210.725,0
841,5949,204.637,0
842,5938,207.904,0
843,5932,223.441,0
844,5920,251.004,0
845,5938,287.212,0
846,5923,326.598,0
847,5869,362.844,0
848,5795,389.559,0
849,5713,400.892,0
850,5637,392.526,0
851,5578,362.935,0
852,5562,314.182,0
853,5585,251.866,0
854,5656,184.243,0
855,5720,120.782,0
856,5708,70.231,0
857,5652,38.242,0
858,5578,25.404,0
859,5495,27.029,0
860,5403,34.887,0
861,5317,39.703,0
862,5263,33.273,0
863,5229,9.994,0
864,5219,-32.120,0
865,5230,-90.960,0
866,5231,-160.531,0
867,5239,-232.048,0
868,5262,-295.797,0
869,5292,-343.240,0
870,5306,-368.810,0
871,5314,-371.194,0
872,5328,-353.704,0
873,5352,-323.221,0
874,5365,-287.866,0
875,5340,-254.506,0
876,5288,-227.472,0
877,5223,-208.857,0
878,5168,-199.661,0
879,5158,-200.640,0
880,5195,-212.167,0
881,5247,-233.190,0
882,5275,-260.323,0
883,5260,-288.157,0
884,5205,-310.990,0
885,5165,-325.019,0
886,5150,-329.602,0
887,5140,-326.951,0
888,5147,-320.857,0
889,5150,-315.346,0
890,5149,-313.632,0
891,5130,-317.430,0
892,5102,-326.733,0
893,5089,-340.040,0
894,5120,-354.794,0
895,5201,-367.667,0
896,5339,-374.605,0
897,5495,-370.845,0
898,5640,-351.264,0
899,5763,-311.299,0
900,5890,-248.106,0
901,6012,-161.258,0
902,6178,-52.577,0
903,6407,74.793,0
904,6748,217.952,0
905,7217,376.284,0
906,7792,553.545,0
907,8388,758.952,0
908,8910,1005.856,0
909,9223,1307.122,0
910,9275,1667.801,0
911,8989,2077.303,0
912,8341,2504.001,0
913,7428,2894.686,0
914,6455,3180.614,0
915,5586,3290.831,0
916,4942,3170.558,0
917,4548,2798.920,0
918,4363,2199.197,0
919,4405,1437.321,0
920,4580,609.110,0
921,4786,-179.512,0
922,4983,-834.002,0
923,5131,-1289.139,0
924,5203,-1519.159,0
925,5200,-1538.357,0
926,5153,-1393.277,0
927,5097,-1149.318,0
928,5054,-875.304,0
929,5029,-629.698,0
930,5033,-451.326,0
931,5034,-356.035,0
932,5027,-338.977,0
933,5022,-380.947,0
934,4996,-456.313,0
935,4968,-540.262,0
936,4967,-613.882,0
937,4988,-666.286,0
938,5024,-694.003,0
939,5023,-698.904,0
940,5045,-686.040,0
941,5049,-661.864,0
942,5018,-632.766,0
943,5013,-604.147,0
944,5031,-579.921,0
945,5031,-562.074,0
946,5025,-550.626,0
947,5043,-544.323,0
948,5076,-541.393,0
949,5136,-539.696,0
950,5177,-536.478,0
951,5222,-528.469,0
952,5286,-512.532,0
953,5322,-486.436,0
954,5351,-449.495,0
955,5371,-403.051,0
956,5367,-350.537,0
957,5343,-296.953,0
958,5316,-247.982,0
959,5275,-208.916,0
960,5222,-183.687,0
961,5154,-174.396,0
962,5137,-181.365,0
963,5166,-203.115,0
964,5205,-235.939,0
965,5224,-273.836,0
966,5249,-309.600,0
967,5310,-336.543,0
968,5350,-349.672,0
969,5385,-346.147,0
970,5425,-325.536,0
971,5446,-289.898,0
972,5439,-243.486,0
973,5397,-192.263,0
974,5348,-143.302,0
975,5320,-103.759,0
976,5292,-79.316,0
977,5264,-72.706,0
978,5253,-83.204,0
979,5278,-107.134,0
980,5321,-138.774,0
981,5384,-171.242,0
982,5435,-197.471,0
983,5468,-211.376,0
984,5475,-209.137,0
985,5471,-190.190,0
986,5467,-157.449,0
987,5464,-116.516,0
988,5458,-74.193,0
989,5460,-36.875,0
990,5475,-9.222,0
991,5494,6.735,0
992,5513,11.905,0
993,5504,9.606,0
994,5498,4.224,0
995,5521,-0.320,0
996,5537,-1.446,0
997,5558,2.028,0
998,5589,10.150,0
999,5630,22.281,0
1000,5669,37.721,0
1001,5704,56.222,0
1002,5751,78.094,0
1003,5817,104.024,0
1004,5854,134.823,0
1005,5860,170.902,0
1006,5856,211.391,0
1007,5869,253.611,0
1008,5877,293.655,0
1009,5905,327.844,0
1010,5961,354.188,0
1011,6033,373.281,0
1012,6116,388.371,0
1013,6176,404.445,0
1014,6230,426.542,0
1015,6270,458.010,0
1016,6249,499.385,0
1017,6194,547.959,0
1018,6148,597.967,0
1019,6138,641.837,0
1020,6174,672.633,0
1021,6244,686.759,0
1022,6355,685.640,0
1023,6413,675.589,0
1024,6407,665.579,0
1025,6370,663.553,0
1026,6328,673.131,0
1027,6293,692.566,0
1028,6281,716.145,0
1029,6274,736.820,0
1030,6288,748.730,0
1031,6314,748.813,0
1032,6337,737.403,0
1033,6352,717.867,0
1034,6353,695.411,0
1035,6347,675.424,0
1036,6323,661.860,0
1037,6289,656.074,0
1038,6235,656.344,0
1039,6181,658.226,0
1040,6139,655.783,0
1041,6078,643.427,0
1042,5983,617.522,0
1043,5896,576.918,0
1044,5850,522.581,0
1045,5807,457.188,0
1046,5712,384.650,0
1047,5605,308.876,0
1048,5493,232.121,0
1049,5383,154.272,0
1050,5263,73.538,0
1051,5182,-12.109,0
1052,5144,-103.460,0
1053,5138,-198.917,0
1054,5151,-294.125,0
1055,5126,-382.868,0
1056,5088,-459.088,0
1057,5052,-519.075,0
1058,5015,-562.510,0
1059,4965,-591.989,0
1060,4927,-611.771,0
1061,4901,-626.534,0
1062,4895,-640.330,0
1063,4894,-655.834,0
1064,4903,-673.984,0
1065,4900,-694.070,0
1066,4903,-714.166,0
1067,4903,-731.762,0
1068,4891,-744.419,0
1069,4880,-750.464,0
1070,4871,-749.601,0
1071,4862,-743.145,0
1072,4860,-733.682,0
1073,4881,-724.215,0
1074,4873,-717.057,0
1075,4869,-713.062,0
1076,4895,-711.583,0
1077,4931,-710.749,0
1078,4972,-707.819,0
1079,5002,-699.850,0
1080,5013,-684.730,0
1081,5017,-662.133,0
1082,5019,-633.797,0
1083,4997,-602.936,0
1084,4971,-573.248,0
1085,4949,-548.085,0
1086,4927,-529.932,0
1087,4911,-520.155,0
1088,4892,-519.030,0
1089,4873,-525.950,0
1090,4869,-539.629,0
1091,4881,-558.089,0
1092,4893,-578.491,0
1093,4928,-597.188,0
1094,4925,-610.280,0
1095,4933,-614.697,0
1096,4963,-609.259,0
1097,5010,-594.839,0
1098,5043,-573.467,0
1099,5058,-547.277,0
1100,5075,-518.041,0
1101,5080,-487.196,0
1102,5079,-455.995,0
1103,5087,-425.675,0
1104,5094,-397.548,0
1105,5092,-372.900,0
1106,5058,-352.911,0
1107,5025,-338.738,0
1108,4996,-331.531,0
1109,4995,-332.025,0
1110,5043,-339.705,0
1111,5091,-352.043,0
1112,5134,-364.513,0
1113,5149,-371.854,0
1114,5141,-370.046,0
1115,5132,-357.892,0
1116,5126,-337.302,0
1117,5125,-312.225,0
1118,5154,-286.925,0
1119,5179,-264.450,0
1120,5165,-245.969,0
1121,5148,-231.357,0
1122,5146,-220.346,0
1123,5135,-213.070,0
1124,5131,-209.750,0
1125,5141,-210.116,0
1126,5157,-213.048,0
1127,5169,-216.602,0
1128,5185,-218.527,0
1129,5241,-216.921,0
1130,5317,-210.386,0
1131,5366,-197.616,0
1132,5379,-177.288,0
1133,5382,-148.793,0
1134,5377,-113.159,0
1135,5348,-73.313,0
1136,5296,-33.727,0
1137,5267,0.238,0
1138,5273,23.400,0
1139,5313,32.448,0
1140,5349,27.546,0
1141,5359,12.691,0
1142,5365,-5.675,0
1143,5398,-20.946,0
1144,5436,-28.076,0
1145,5474,-24.212,0
1146,5516,-8.674,0
1147,5550,17.331,0
1148,5540,51.126,0
1149,5494,88.864,0
1150,5453,125.687,0
1151,5399,156.217,0
1152,5376,175.619,0
1153,5372,180.844,0
1154,5396,171.590,0
1155,5443,150.628,0
1156,5476,123.347,0
1157,5506,96.521,0
1158,5523,76.619,0
1159,5537,68.275,0
1160,5561,73.449,0
1161,5610,91.484,0
1162,5657,119.922,0
1163,5671,155.480,0
1164,5652,194.501,0
1165,5610,232.826,0
1166,5554,265.761,0
1167,5505,288.626,0
1168,5489,297.838,0
1169,5497,292.101,0
1170,5521,273.133,0
1171,5540,245.402,0
1172,5539,214.814,0
1173,5549,186.952,0
1174,5591,165.855,0
1175,5671,154.047,0
1176,5707,153.390,0
1177,5690,165.258,0
1178,5665,189.353,0
1179,5641,222.347,0
1180,5644,258.081,0
1181,5678,289.561,0
1182,5725,311.681,0
1183,5785,323.219,0
1184,5802,327.091,0
1185,5811,328.713,0
1186,5827,333.397,0
1187,5814,344.277,0
1188,5796,361.440,0
1189,5790,382.173,0
1190,5787,402.157,0
1191,5779,417.183,0
1192,5794,424.614,0
1193,5820,424.135,0
1194,5828,417.747,0
1195,5872,408.995,0
1196,5939,401.907,0
1197,5992,400.276,0
1198,6027,407.168,0
1199,6034,424.210,0
1200,6018,450.840,0
1201,6045,484.160,0
1202,6085,519.892,0
1203,6116,554.077,0
1204,6134,584.308,0
1205,6116,609.672,0
1206,6089,629.807,0
1207,6057,644.005,0
1208,6052,651.102,0
1209,6081,650.294,0
1210,6152,642.378,0
1211,6225,630.593,0
1212,6292,620.328,0
1213,6367,617.633,0
1214,6395,627.331,0
1215,6380,651.446,0
1216,6348,688.235,0
1217,6298,732.218,0
1218,6233,775.386,0
1219,6239,809.203,0
1220,6310,827.137,0
1221,6445,827.328,0
1222,6572,814.210,0
1223,6571,797.494,0
1224,6490,787.982,0
1225,6392,792.111,0
1226,6289,808.714,0
1227,6285,829.950,0
1228,6427,845.802,0
1229,6565,849.909,0
1230,6581,843.093,0
1231,6527,831.749,0
1232,6444,822.600,0
1233,6405,818.430,0
1234,6370,817.570,0
1235,6313,816.048,0
1236,6268,809.709,0
1237,6225,795.099,0
1238,6175,769.677,0
1239,6162,732.112,0
1240,6212,683.046,0
1241,6305,626.367,0
1242,6423,570.062,0
1243,6570,525.442,0
1244,6694,504.559,0
1245,6764,516.631,0
1246,6808,564.680,0
1247,6809,643.861,0
1248,6785,742.391,0
1249,6749,844.669,0
1250,6738,935.318,0
1251,6722,1002.831,0
1252,6729,1041.689,0
1253,6762,1052.501,0
1254,6837,1040.795,0
1255,6922,1015.401,0
1256,7036,986.883,0
1257,7151,966.074,0
1258,7228,962.589,0
1259,7203,982.932,0
1260,7153,1028.113,0
1261,7135,1092.133,0
1262,7097,1163.118,0
1263,7126,1226.996,0
1264,7203,1272.091,0
1265,7200,1292.835,0
1266,7080,1290.507,0
1267,6860,1270.011,0
1268,6735,1235.040,0
1269,6728,1185.958,0
1270,6769,1122.107,0
1271,6824,1045.659,0
1272,6873,963.217,0
1273,6881,884.275,0
1274,6883,818.123,0
1275,6890,771.174,0
1276,6894,745.860,0
1277,6864,740.859,0
1278,6846,751.672,0
1279,6855,771.365,0
1280,6814,791.868,0
1281,6750,805.492,0
1282,6689,806.018,0
1283,6661,789.608,0
1284,6687,755.956,0
1285,6734,709.163,0
1286,6763,657.256,0
1287,6780,609.817,0
1288,6817,574.695,0
1289,6892,555.882,0
1290,7003,553.815,0
1291,7057,567.323,0
1292,7037,594.995,0
1293,6966,634.556,0
1294,6983,681.376,0
1295,6941,728.415,0
1296,6785,767.549,0
1297,6701,790.448,0
1298,6673,789.458,0
1299,6669,760.071,0
1300,6688,703.776,0
1301,6731,628.796,0
1302,6797,548.200,0
1303,6807,476.379,0
1304,6742,424.818,0
1305,6661,398.234,0
1306,6573,392.889,0
1307,6536,398.367,0
1308,6521,402.137,0
1309,6495,394.466,0
1310,6513,371.287,0
1311,6581,334.492,0
1312,6670,290.709,0
1313,6735,249.363,0
1314,6832,220.152,0
1315,6977,210.838,0
1316,7120,226.437,0
1317,7304,269.584,0
1318,7437,340.999,0
1319,7531,439.252,0
1320,7664,560.020,0
1321,7844,696.186,0
1322,8082,839.903,0
1323,8405,985.811,0
1324,8677,1133.559,0
1325,9025,1288.012,0
1326,9449,1457.416,0
1327,9800,1651.083,0
1328,10048,1876.709,0
1329,10180,2136.545,0
1330,10120,2423.524,0
1331,9789,2719.003,0
1332,9055,2992.114,0
1333,8067,3200.223,0
1334,7099,3292.082,0
1335,6362,3217.040,0
1336,5913,2940.410,0
1337,5816,2459.303,0
1338,6026,1811.425,0
1339,6256,1072.219,0
1340,6330,339.396,0
1341,6317,-291.572,0
1342,6299,-751.731,0
1343,6312,-1012.550,0
1344,6351,-1085.703,0
1345,6389,-1012.411,0
1346,6424,-848.698,0
1347,6455,-651.478,0
1348,6459,-467.902,0
1349,6449,-328.980,0
1350,6407,-247.749,0
1351,6371,-221.564,0
1352,6329,-237.297,0
1353,6327,-277.626,0
1354,6358,-326.473,0
1355,6427,-372.102,0
1356,6537,-407.491,0
1357,6606,-428.776,0
1358,6654,-433.446,0
1359,6572,-419.927,0
1360,6415,-389.132,0
1361,6325,-346.765,0
1362,6270,-303.668,0
1363,6233,-272.958,0
1364,6221,-265.741,0
1365,6307,-287.491,0
1366,6365,-335.730,0
1367,6373,-399.895,0
1368,6371,-464.479,0
1369,6319,-514.471,0
1370,6326,-540.415,0
1371,6389,-540.731,0
1372,6408,-520.551,0
1373,6386,-488.693,0
1374,6358,-454.896,0
1375,6313,-427.671,0
1376,6299,-412.482,0
1377,6317,-410.583,0
1378,6347,-419.049,0
1379,6368,-432.252,0
1380,6375,-444.409,0
1381,6381,-451.959,0
1382,6382,-454.426,0
1383,6379,-453.458,0
1384,6386,-450.951,0
1385,6402,-447.518,0
1386,6406,-442.162,0
1387,6417,-433.269,0
1388,6437,-420.193,0
1389,6470,-404.134,0
1390,6490,-387.658,0
1391,6503,-373.301,0
1392,6533,-362.171,0
1393,6572,-353.164,0
1394,6584,-343.168,0
1395,6632,-328.455,0
1396,6696,-306.480,0
1397,6704,-276.957,0
1398,6696,-242.085,0
1399,6680,-206.135,0
1400,6579,-174.356,0
1401,6477,-151.812,0
1402,6370,-142.822,0
1403,6304,-150.674,0
1404,6292,-177.088,0
1405,6297,-221.439,0
1406,6325,-280.219,0
1407,6354,-347.158,0
1408,6368,-414.030,0
1409,6303,-472.206,0
1410,6247,-514.960,0
1411,6215,-539.639,0
1412,6223,-548.231,0
1413,6229,-546.040,0
1414,6228,-539.613,0
1415,6229,-534.962,0
1416,6216,-536.245,0
1417,6250,-544.796,0
1418,6303,-558.539,0
1419,6336,-572.222,0
1420,6331,-579.187,0
1421,6313,-574.473,0
1422,6297,-557.527,0
1423,6307,-532.632,0
1424,6337,-506.696,0
1425,6376,-485.739,0
1426,6410,-472.103,0
1427,6418,-463.855,0
1428,6422,-456.489,0
1429,6436,-445.702,0
1430,6500,-429.413,0
1431,6590,-407.864,0
1432,6633,-382.198,0
1433,6647,-353.200,0
1434,6684,-321.136,0
1435,6740,-285.994,0
1436,6778,-247.454,0
1437,6739,-205.256,0
1438,6717,-160.551,0
1439,6732,-117.030,0
1440,6737,-80.105,0
1441,6772,-54.489,0
1442,6804,-41.890,0
1443,6830,-40.084,0
1444,6805,-43.802,0
1445,6753,-47.275,0
1446,6698,-47.188,0
1447,6611,-44.421,0
1448,6552,-43.739,0
1449,6553,-51.613,0
1450,6558,-72.918,0
1451,6567,-108.139,0
1452,6590,-152.788,0
1453,6608,-199.065,0
1454,6599,-238.654,0
1455,6576,-265.577,0
1456,6558,-278.100,0
1457,6584,-278.758,0
1458,6598,-272.424,0
1459,6567,-263.829,0
1460,6454,-256.462,0
1461,6280,-253.526,0
1462,6109,-259.697,0
1463,5969,-281.641,0
1464,5877,-326.311,0
1465,5843,-397.862,0
1466,5819,-494.998,0
1467,5778,-610.294,0
1468,5767,-731.984,0
1469,5751,-847.126,0
1470,5671,-944.743,0
1471,5605,-1018.445,0
1472,5619,-1067.758,0
1473,5661,-1096.928,0
1474,5594,-1112.007,0
1475,5452,-1119.119,0
1476,5341,-1124.881,0
1477,5288,-1136.627,0
1478,5226,-1160.620,0
1479,5144,-1199.764,0
1480,5116,-1253.046,0
1481,5148,-1316.409,0
1482,5160,-1383.642,0
1483,5096,-1447.453,0
1484,5040,-1501.545,0
1485,5028,-1542.650,0
1486,5012,-1570.744,0
1487,5000,-1587.675,0
1488,4986,-1595.884,0
1489,5001,-1597.900,0
1490,5017,-1596.063,0
1491,5023,-1592.141,0
1492,5035,-1587.032,0
1493,5070,-1580.669,0
1494,5097,-1571.940,0
1495,5085,-1558.948,0
1496,5038,-1540.138,0
1497,5012,-1515.884,0
1498,5001,-1489.175,0
1499,5006,-1464.573,0
1500,5037,-1446.130,0
1501,5075,-1435.473,0
1502,5075,-1431.010,0
1503,5055,-1428.808,0
1504,5049,-1424.662,0
1505,5051,-1415.928,0
1506,5056,-1402.129,0
1507,5092,-1384.461,0
1508,5146,-1364.664,0
1509,5202,-1343.730,0
1510,5219,-1321.157,0
1511,5181,-1295.486,0
1512,5144,-1265.904,0
1513,5135,-1233.611,0
1514,5124,-1201.721,0
1515,5145,-1173.913,0
1516,5199,-1152.825,0
1517,5266,-1138.751,0
1518,5282,-1129.172,0
1519,5289,-1119.697,0
1520,5265,-1106.073,0
1521,5193,-1086.177,0
1522,5166,-1061.139,0
1523,5201,-1034.928,0
1524,5263,-1012.142,0
1525,5305,-995.325,0
1526,5316,-983.838,0
1527,5319,-974.797,0
1528,5299,-964.912,0
1529,5258,-952.015,0
1530,5201,-935.944,0
1531,5175,-918.760,0
1532,5181,-904.027,0
1533,5194,-895.228,0
1534,5207,-894.150,0
1535,5197,-900.206,0
1536,5179,-910.881,0
1537,5167,-922.816,0
1538,5167,-932.830,0
1539,5177,-938.497,0
1540,5196,-938.402,0
1541,5201,-932.255,0
1542,5206,-920.931,0
1543,5180,-906.335,0
1544,5150,-891.034,0
1545,5114,-877.727,0
1546,5079,-868.645,0
1547,5069,-865.092,0
1548,5078,-867.191,0
1549,5114,-873.817,0
1550,5172,-882.630,0
1551,5200,-890.297,0
1552,5213,-893.120,0
1553,5213,-888.085,0
1554,5187,-873.828,0
1555,5144,-851.188,0
1556,5109,-823.311,0
1557,5085,-795.148,0
1558,5083,-772.211,0
1559,5092,-758.909,0
1560,5121,-757.055,0
1561,5140,-765.097,0
1562,5096,-778.589,0
1563,5041,-792.109,0
1564,5003,-801.750,0
1565,5008,-806.478,0
1566,5029,-807.587,0
1567,5045,-807.097,0
1568,5047,-806.463,0
1569,5032,-806.187,0
1570,5013,-806.079,0
1571,4970,-805.696,0
1572,4914,-804.855,0
1573,4892,-804.130,0
1574,4884,-804.902,0
1575,4878,-808.750,0
1576,4867,-816.694,0
1577,4847,-828.823,0
1578,4811,-844.323,0
1579,4780,-861.761,0
1580,4747,-879.472,0
1581,4746,-895.910,0
1582,4761,-909.817,0
1583,4782,-920.205,0
1584,4808,-926.309,0
1585,4829,-927.591,0
1586,4792,-923.808,0
1587,4728,-915.383,0
1588,4691,-903.953,0
1589,4661,-892.311,0
1590,4652,-883.499,0
1591,4666,-879.732,0
1592,4675,-881.746,0
1593,4673,-888.718,0
1594,4647,-898.751,0
1595,4598,-909.692,0
1596,4544,-919.947,0
1597,4524,-928.927,0
1598,4544,-936.789,0
1599,4583,-943.602,0
1600,4611,-948.666,0
1601,4624,-950.610,0
1602,4607,-948.177,0
1603,4558,-941.078,0
1604,4508,-930.442,0
1605,4466,-918.651,0
1606,4463,-908.559,0
1607,4493,-902.382,0
1608,4543,-900.712,0
1609,4577,-902.154,0
1610,4567,-903.898,0
1611,4522,-903.105,0
1612,4471,-898.339,0
1613,4433,-890.174,0
1614,4423,-880.644,0
1615,4449,-872.018,0
1616,4495,-865.624,0
1617,4529,-861.260,0
1618,4543,-857.429,0
1619,4525,-852.202,0
1620,4480,-844.209,0
1621,4433,-833.299,0
1622,4409,-820.632,0
1623,4420,-808.125,0
1624,4441,-797.541,0
1625,4451,-789.823,0
1626,4441,-785.090,0
1627,4405,-783.123,0
1628,4349,-783.837,0
1629,4286,-787.434,0
1630,4227,-794.303,0
1631,4207,-804.807,0
1632,4211,-818.975,0
1633,4227,-836.198,0
1634,4257,-855.084,0
1635,4263,-873.557,0
1636,4246,-889.171,0
1637,4215,-899.672,0
1638,4177,-903.648,0
1639,4141,-901.016,0
1640,4148,-893.171,0
1641,4175,-882.553,0
1642,4191,-871.728,0
1643,4208,-862.540,0
1644,4214,-855.687,0
1645,4194,-850.629,0
1646,4173,-845.872,0
1647,4159,-839.631,0
1648,4150,-830.593,0
1649,4152,-818.512,0
1650,4158,-804.429,0
1651,4158,-790.397,0
1652,4125,-778.780,0
1653,4090,-771.529,0
1654,4071,-769.618,0
1655,4072,-772.592,0
1656,4109,-778.342,0
1657,4150,-783.430,0
1658,4185,-784.040,0
1659,4213,-777.280,0
1660,4208,-762.168,0
1661,4180,-739.873,0
1662,4135,-713.273,0
1663,4099,-686.113,0
1664,4081,-662.024,0
1665,4085,-643.689,0
1666,4120,-632.331,0
1667,4161,-627.523,0
1668,4208,-627.238,0
1669,4265,-628.085,0
1670,4327,-625.629,0
1671,4357,-614.934,0
1672,4370,-591.694,0
1673,4389,-553.855,0
1674,4412,-502.786,0
1675,4433,-443.175,0
1676,4430,-381.764,0
1677,4411,-325.626,0
1678,4379,-280.585,0
1679,4349,-250.082,0
1680,4351,-234.603,0
1681,4396,-231.674,0
1682,4471,-236.289,0
1683,4557,-241.831,0
1684,4645,-241.419,0
1685,4706,-229.348,0
1686,4734,-202.211,0
1687,4740,-159.538,0
1688,4730,-103.833,0
1689,4747,-39.990,0
1690,4769,25.867,0
1691,4783,87.726,0
1692,4790,140.650,0
1693,4774,181.196,0
1694,4731,207.515,0
1695,4679,219.304,0
1696,4651,217.701,0
1697,4652,205.254,0
1698,4671,185.873,0
1699,4710,164.359,0
1700,4747,145.483,0
1701,4752,132.939,0
1702,4738,128.528,0
1703,4687,131.811,0
1704,4626,140.342,0
1705,4569,150.342,0
1706,4539,157.615,0
1707,4543,158.585,0
1708,4558,151.235,0
1709,4559,135.600,0
1710,4540,113.522,0
1711,4507,87.850,0
1712,4470,61.582,0
1713,4454,37.330,0
1714,4459,17.160,0
1715,4492,2.616,0
1716,4529,-5.286,0
1717,4563,-6.176,0
1718,4574,-0.472,0
1719,4547,10.579,0
1720,4505,24.975,0
1721,4472,40.203,0
1722,4448,53.733,0
1723,4433,63.562,0
1724,4424,68.415,0
1725,4440,67.616,0
1726,4461,61.109,0
1727,4471,49.814,0
1728,4455,35.878,0
1729,4423,22.296,0
1730,4396,11.943,0
1731,4387,6.585,0
1732,4390,6.387,0
1733,4404,10.041,0
1734,4419,15.342,0
1735,4436,20.045,0
1736,4431,22.765,0
1737,4402,23.464,0
1738,4380,23.195,0
1739,4395,23.404,0
1740,4464,25.523,0
1741,4577,31.190,0
1742,4709,42.781,0
1743,4838,63.619,0
1744,4922,97.497,0
1745,4987,147.529,0
1746,5059,214.916,0
1747,5173,298.483,0
1748,5374,395.485,0
1749,5699,503.548,0
1750,6146,623.211,0
1751,6652,760.067,0
1752,7127,925.015,0
1753,7497,1131.471,0
1754,7687,1389.808,0
1755,7659,1700.674,0
1756,7397,2049.558,0
1757,6886,2404.578,0
1758,6198,2718.609,0
1759,5451,2935.991,0
1760,4821,3003.499,0
1761,4340,2883.895,0
1762,4036,2568.112,0
1763,3920,2081.202,0
1764,3971,1479.460,0
1765,4118,839.638,0
1766,4293,243.366,0
1767,4441,-239.215,0
1768,4541,-562.559,0
1769,4579,-712.389,0
1770,4556,-704.854,0
1771,4514,-579.301,0
1772,4477,-387.201,0
1773,4462,-180.197,0
1774,4485,-0.077,0
1775,4492,127.335,0
1776,4483,193.460,0
1777,4464,203.982,0
1778,4438,173.500,0
1779,4415,119.996,0
1780,4389,60.382,0
1781,4389,7.577,0
1782,4417,-30.765,0
1783,4450,-51.956,0
1784,4483,-56.988,0
1785,4495,-49.018,0
1786,4473,-32.145,0
1787,4436,-10.683,0
1788,4419,11.242,0
1789,4420,30.188,0
1790,4445,44.047,0
1791,4495,52.485,0
1792,4547,56.933,0
1793,4583,60.137,0
1794,4585,65.288,0
1795,4571,74.926,0
1796,4545,90.048,0
1797,4534,109.817,0
1798,4556,132.002,0
1799,4597,153.971,0
1800,4643,173.769,0
1801,4672,190.716,0
1802,4670,205.273,0
1803,4645,218.368,0
1804,4617,230.640,0
1805,4577,242.027,0
1806,4572,251.773,0
1807,4586,258.771,0
1808,4609,262.145,0
1809,4629,261.736,0
1810,4631,258.202,0
1811,4625,252.800,0
1812,4611,247.068,0
1813,4587,242.521,0
1814,4581,240.310,0
1815,4600,240.915,0
1816,4615,244.119,0
1817,4638,249.177,0
1818,4649,255.055,0
1819,4647,260.746,0
1820,4649,265.640,0
1821,4640,269.808,0
1822,4634,273.992,0
1823,4645,279.180,0
1824,4674,286.059,0
1825,4714,294.778,0
1826,4759,305.119,0
1827,4791,316.926,0
1828,4771,330.364,0
1829,4740,345.628,0
1830,4716,362.309,0
1831,4715,379.109,0
1832,4738,394.265,0
1833,4767,406.289,0
1834,4805,414.535,0
1835,4829,419.396,0
1836,4852,422.235,0
1837,4862,425.123,0
1838,4867,430.420,0
1839,4882,440.164,0
1840,4915,455.468,0
1841,4946,476.206,0
1842,4978,501.059,0
1843,5016,527.872,0
1844,5044,554.372,0
1845,5057,579.008,0
1846,5061,601.408,0
1847,5088,622.223,0
1848,5129,642.679,0
1849,5188,664.156,0
1850,5255,687.872,0
1851,5325,714.679,0
1852,5361,745.025,0
1853,5388,778.930,0
1854,5396,815.903,0
1855,5389,854.887,0
1856,5408,894.246,0
1857,5453,931.959,0
1858,5515,966.203,0
1859,5569,996.021,0
1860,5622,1021.638,0
1861,5641,1044.284,0
1862,5640,1065.658,0
1863,5651,1087.239,0
1864,5673,1109.838,0
1865,5719,1133.612,0
1866,5772,1158.347,0
1867,5824,1183.679,0
1868,5862,1209.159,0
1869,5873,1234.237,0
1870,5874,1258.245,0
1871,5874,1280.474,0
1872,5879,1300.372,0
1873,5905,1317.719,0
1874,5934,1332.629,0
1875,5970,1345.380,0
1876,5997,1356.185,0
1877,6001,1365.079,0
1878,5986,1371.927,0
1879,5972,1376.497,0
1880,5943,1378.582,0
1881,5930,1378.047,0
1882,5921,1374.696,0
1883,5912,1368.089,0
1884,5898,1357.463,0
1885,5855,1341.809,0
1886,5785,1320.035,0
1887,5694,1291.105,0
1888,5592,1254.117,0
1889,5503,1208.358,0
1890,5442,1153.444,0
1891,5403,1089.606,0
1892,5365,1018.006,0
1893,5307,940.760,0
1894,5231,860.498,0
1895,5146,779.716,0
1896,5070,700.355,0
1897,5028,623.822,0
1898,4982,551.306,0
1899,4969,483.921,0
1900,4960,422.526,0
1901,4947,367.528,0
1902,4921,318.857,0
1903,4877,276.059,0
1904,4825,238.427,0
1905,4787,205.115,0
1906,4781,175.304,0
1907,4798,148.485,0
1908,4816,124.679,0
1909,4844,104.350,0
1910,4854,88.094,0
1911,4824,76.330,0
1912,4776,68.941,0
1913,4734,64.937,0
1914,4706,62.507,0
1915,4701,59.529,0
1916,4723,54.240,0
1917,4745,45.776,0
1918,4750,34.387,0
1919,4729,21.186,0
1920,4698,7.573,0
1921,4667,-5.271,0
1922,4642,-16.600,0
1923,4646,-26.079,0
1924,4669,-33.677,0
1925,4698,-39.482,0
1926,4723,-43.559,0
1927,4731,-45.885,0
1928,4722,-46.348,0
1929,4703,-44.786,0
1930,4670,-41.125,0
1931,4656,-35.653,0
1932,4658,-29.245,0
1933,4689,-23.251,0
1934,4735,-18.946,0
1935,4779,-16.758,0
1936,4793,-15.774,0
1937,4784,-13.954,0
1938,4760,-9.059,0
1939,4747,0.273,0
1940,4753,13.889,0
1941,4785,30.244,0
1942,4821,47.125,0
1943,4846,62.527,0
1944,4851,75.250,0
1945,4824,85.009,0
1946,4799,92.147,0
1947,4782,97.233,0
1948,4794,100.849,0
1949,4818,103.586,0
1950,4852,106.056,0
1951,4887,108.829,0
1952,4901,112.379,0
1953,4883,117.065,0
1954,4843,122.980,0
1955,4809,129.696,0
1956,4806,136.227,0
1957,4831,141.421,0
1958,4864,144.571,0
1959,4892,145.738,0
1960,4905,145.591,0
1961,4902,145.018,0
1962,4889,144.858,0
1963,4881,145.844,0
1964,4902,148.677,0
1965,4940,154.143,0
1966,4974,163.064,0
1967,5015,175.933,0
1968,5037,192.471,0
1969,5037,211.519,0
1970,5020,231.321,0
1971,4991,249.991,0
1972,4982,265.946,0
1973,4998,278.238,0
1974,5040,286.798,0
1975,5090,292.487,0
1976,5125,296.857,0
1977,5144,301.654,0
1978,5137,308.277,0
1979,5113,317.416,0
1980,5086,328.908,0
1981,5083,341.774,0
1982,5113,354.535,0
1983,5158,365.801,0
1984,5209,374.872,0
1985,5244,382.017,0
1986,5240,388.320,0
1987,5216,395.119,0
1988,5192,403.306,0
1989,5187,412.941,0
1990,5189,423.343,0
1991,5197,433.364,0
1992,5210,441.553,0
1993,5219,446.358,0
1994,5221,446.570,0
1995,5223,441.924,0
1996,5228,433.560,0
1997,5248,424.033,0
1998,5281,416.767,0
1999,5316,415.056,0
2000,5353,420.971,0
2001,5370,434.611,0
2002,5376,454.049,0
2003,5372,476.026,0
2004,5349,497.083,0
2005,5334,514.565,0
2006,5344,527.098,0
2007,5372,534.627,0
2008,5399,538.147,0
2009,5424,539.157,0
2010,5445,539.053,0
2011,5430,538.818,0
2012,5408,538.974,0
2013,5381,539.607,0
2014,5370,540.441,0
2015,5384,541.009,0
2016,5406,540.859,0
2017,5432,539.701,0
2018,5447,537.426,0
2019,5443,534.083,0
2020,5430,529.892,0
2021,5398,525.246,0
2022,5378,520.600,0
2023,5393,516.279,0
2024,5420,512.459,0
2025,5444,509.284,0
2026,5461,506.842,0
2027,5453,504.974,0
2028,5412,503.157,0
2029,5370,500.495,0
2030,5350,495.904,0
2031,5355,488.599,0
2032,5381,478.640,0
2033,5422,467.094,0
2034,5451,455.700,0
2035,5459,446.250,0
2036,5442,439.951,0
2037,5408,437.042,0
2038,5374,436.777,0
2039,5369,437.745,0
2040,5391,438.449,0
2041,5424,437.917,0
2042,5463,436.000,0
2043,5493,433.267,0
2044,5497,430.716,0
2045,5474,429.412,0
2046,5454,430.088,0
2047,5436,432.879,0
2048,5430,437.273,0
2049,5443,442.208,0
2050,5467,446.259,0
2051,5478,448.009,0
2052,5472,446.441,0
2053,5455,441.190,0
2054,5425,432.629,0
2055,5396,421.765,0
2056,5397,409.905,0
2057,5414,398.306,0
2058,5451,387.975,0
2059,5481,379.615,0
2060,5480,373.588,0
2061,5455,369.799,0
2062,5433,367.606,0
2063,5424,366.063,0
2064,5428,364.485,0
2065,5459,362.875,0
2066,5492,361.874,0
2067,5521,362.324,0
2068,5529,364.698,0
2069,5528,368.764,0
2070,5504,373.677,0
2071,5467,378.361,0
2072,5444,381.793,0
2073,5446,383.119,0
2074,5464,381.780,0
2075,5484,377.619,0
2076,5498,370.869,0
2077,5502,362.042,0
2078,5488,351.900,0
2079,5464,341.462,0
2080,5438,331.844,0
2081,5443,323.952,0
2082,5482,318.291,0
2083,5519,315.084,0
2084,5556,314.451,0
2085,5573,316.394,0
2086,5575,320.708,0
2087,5571,327.044,0
2088,5577,335.104,0
2089,5596,344.859,0
2090,5629,356.575,0
2091,5677,370.563,0
2092,5717,386.841,0
2093,5737,404.914,0
2094,5730,423.737,0
2095,5696,441.813,0
2096,5656,457.405,0
2097,5628,468.786,0
2098,5647,474.626,0
2099,5681,474.489,0
2100,5734,469.227,0
2101,5791,460.966,0
2102,5821,452.706,0
2103,5844,447.709,0
2104,5852,448.800,0
2105,5855,457.786,0
2106,5876,475.044,0
2107,5904,499.378,0
2108,5926,528.209,0
2109,5935,557.977,0
2110,5908,584.659,0
2111,5857,604.329,0
2112,5788,613.713,0
2113,5721,610.681,0
2114,5703,594.633,0
2115,5709,566.796,0
2116,5736,530.288,0
2117,5765,489.613,0
2118,5765,449.636,0
2119,5736,414.389,0
2120,5682,386.108,0
2121,5629,364.850,0
2122,5583,348.826,0
2123,5547,335.167,0
2124,5510,320.664,0
2125,5478,302.210,0
2126,5445,277.121,0
2127,5409,243.623,0
2128,5361,201.471,0
2129,5312,152.289,0
2130,5279,99.309,0
2131,5268,46.628,0
2132,5287,-1.719,0
2133,5319,-42.508,0
2134,5336,-73.781,0
2135,5337,-95.041,0
2136,5319,-107.215,0
2137,5305,-112.250,0
2138,5292,-112.412,0
2139,5286,-109.614,0
2140,5294,-105.202,0
2141,5317,-100.161,0
2142,5353,-95.342,0
2143,5381,-91.379,0
2144,5372,-88.429,0
2145,5351,-86.156,0
2146,5319,-84.040,0
2147,5294,-81.764,0
2148,5289,-79.448,0
2149,5307,-77.662,0
2150,5337,-77.171,0
2151,5365,-78.513,0
2152,5388,-81.591,0
2153,5379,-85.489,0
2154,5346,-88.707,0
2155,5316,-89.863,0
2156,5305,-88.428,0
2157,5327,-84.943,0
2158,5383,-80.568,0
2159,5465,-76.155,0
2160,5561,-71.277,0
2161,5677,-63.568,0
2162,5791,-48.666,0
2163,5894,-20.930,0
2164,6010,25.040,0
2165,6157,92.679,0
2166,6352,182.542,0
2167,6613,292.799,0
2168,6957,421.069,0
2169,7391,566.960,0
2170,7884,734.295,0
2171,8378,931.713,0
2172,8806,1170.556,0
2173,9083,1460.014,0
2174,9143,1800.744,0
2175,8910,2179.034,0
2176,8353,2563.504,0
2177,7524,2905.786,0
2178,6621,3146.190,0
2179,5801,3224.816,0
2180,5183,3096.553,0
2181,4841,2745.582,0
2182,4732,2194.002,0
2183,4803,1500.933,0
2184,4967,751.764,0
2185,5131,40.607,0
2186,5249,-549.061,0
2187,5314,-960.436,0
2188,5331,-1172.258,0
2189,5329,-1198.944,0
2190,5325,-1082.985,0
2191,5313,-882.444,0
2192,5302,-657.207,0
2193,5282,-457.273,0
2194,5239,-315.269,0
2195,5201,-244.083,0
2196,5175,-239.111,0
2197,5166,-283.585,0
2198,5187,-355.157,0
2199,5222,-432.045,0
2200,5261,-497.437,0
2201,5287,-541.550,0
2202,5288,-561.520,0
2203,5277,-559.800,0
2204,5263,-541.923,0
2205,5264,-514.364,0
2206,5280,-482.988,0
2207,5313,-452.291,0
2208,5354,-425.256,0
2209,5390,-403.460,0
2210,5404,-387.182,0
2211,5399,-375.535,0
2212,5397,-366.738,0
2213,5393,-358.525,0
2214,5411,-348.677,0
2215,5447,-335.623,0
2216,5502,-318.842,0
2217,5548,-298.839,0
2218,5551,-276.802,0
2219,5522,-254.316,0
2220,5487,-233.235,0
2221,5455,-215.423,0
2222,5453,-202.278,0
2223,5482,-194.286,0
2224,5530,-190.832,0
2225,5575,-190.358,0
2226,5618,-190.782,0
2227,5628,-189.946,0
2228,5621,-185.972,0
2229,5610,-177.560,0
2230,5614,-164.204,0
2231,5637,-146.248,0
2232,5671,-124.798,0
2233,5720,-101.553,0
2234,5751,-78.475,0
2235,5762,-57.319,0
2236,5749,-39.221,0
2237,5730,-24.517,0
2238,5709,-12.821,0
2239,5710,-3.360,0
2240,5722,4.563,0
2241,5738,11.169,0
2242,5762,16.052,0
2243,5769,18.428,0
2244,5756,17.724,0
2245,5728,14.057,0
2246,5713,8.336,0
2247,5723,2.049,0
2248,5742,-3.083,0
2249,5770,-5.594,0
2250,5813,-4.787,0
2251,5844,-0.868,0
2252,5857,5.469,0
2253,5849,13.595,0
2254,5840,23.249,0
2255,5850,34.502,0
2256,5884,47.597,0
2257,5939,62.793,0
2258,5984,80.205,0
2259,6007,99.577,0
2260,6006,120.047,0
2261,5989,140.152,0
2262,5970,158.238,0
2263,5967,173.068,0
2264,5997,184.311,0
2265,6048,192.723,0
2266,6107,199.926,0
2267,6165,207.885,0
2268,6194,218.332,0
2269,6201,232.356,0
2270,6194,250.224,0
2271,6188,271.424,0
2272,6193,294.873,0
2273,6227,319.135,0
2274,6274,342.682,0
2275,6339,364.232,0
2276,6384,383.149,0
2277,6393,399.673,0
2278,6373,414.694,0
2279,6353,429.131,0
2280,6352,443.431,0
2281,6381,457.502,0
2282,6437,471.031,0
2283,6509,483.897,0
2284,6565,496.466,0
2285,6607,509.623,0
2286,6625,524.582,0
2287,6593,542.478,0
2288,6573,563.718,0
2289,6557,587.356,0
2290,6559,610.993,0
2291,6577,631.304,0
2292,6604,644.974,0
2293,6620,649.768,0
2294,6607,645.336,0
2295,6587,633.317,0
2296,6566,616.748,0
2297,6543,599.105,0
2298,6536,583.222,0
2299,6550,570.439,0
2300,6557,560.364,0
2301,6547,551.307,0
2302,6504,540.997,0
2303,6439,527.217,0
2304,6345,508.187,0
2305,6253,482.605,0
2306,6173,449.411,0
2307,6107,407.594,0
2308,6047,356.221,0
2309,5985,294.700,0
2310,5895,223.136,0
2311,5797,142.582,0
2312,5702,55.076,0
2313,5615,-36.474,0
2314,5546,-128.629,0
2315,5500,-218.036,0
2316,5471,-302.116,0
2317,5445,-379.459,0
2318,5395,-449.792,0
2319,5333,-513.683,0
2320,5268,-572.126,0
2321,5203,-626.077,0
2322,5155,-676.109,0
2323,5134,-722.401,0
2324,5130,-764.934,0
2325,5133,-803.688,0
2326,5138,-838.706,0
2327,5129,-869.952,0
2328,5091,-897.114,0
2329,5036,-919.687,0
2330,5001,-937.413,0
2331,4994,-950.654,0
2332,5011,-960.311,0
2333,5030,-967.452,0
2334,5053,-972.984,0
2335,5070,-977.446,0
2336,5081,-980.749,0
2337,5071,-981.991,0
2338,5056,-979.679,0
2339,5066,-972.426,0
2340,5088,-959.651,0
2341,5117,-941.886,0
2342,5148,-920.676,0
2343,5166,-898.163,0
2344,5169,-876.432,0
2345,5145,-856.902,0
2346,5106,-840.140,0
2347,5082,-826.173,0
2348,5085,-814.959,0
2349,5110,-806.547,0
2350,5153,-800.871,0
2351,5191,-797.410,0
2352,5216,-794.943,0
2353,5207,-791.620,0
2354,5199,-785.433,0
2355,5191,-774.853,0
2356,5208,-759.286,0
2357,5230,-739.190,0
2358,5257,-715.962,0
2359,5281,-691.674,0
2360,5282,-668.635,0
2361,5263,-648.847,0
2362,5237,-633.563,0
2363,5222,-623.076,0
2364,5220,-616.706,0
2365,5239,-613.053,0
2366,5271,-610.463,0
2367,5303,-607.498,0
2368,5325,-603.199,0
2369,5328,-597.076,0
2370,5309,-588.956,0
2371,5282,-578.890,0
2372,5281,-567.189,0
2373,5311,-554.363,0
2374,5353,-540.845,0
2375,5393,-526.767,0
2376,5414,-512.063,0
2377,5407,-496.787,0
2378,5389,-481.358,0
2379,5361,-466.515,0
2380,5348,-453.038,0
2381,5358,-441.445,0
2382,5394,-431.792,0
2383,5428,-423.642,0
2384,5461,-416.242,0
2385,5466,-408.824,0
2386,5448,-400.874,0
2387,5415,-392.288,0
2388,5387,-383.401,0
2389,5378,-374.871,0
2390,5397,-367.431,0
2391,5441,-361.581,0
2392,5482,-357.298,0
2393,5503,-353.920,0
2394,5490,-350.389,0
2395,5467,-345.733,0
2396,5453,-339.443,0
2397,5445,-331.480,0
2398,5456,-322.098,0
2399,5471,-311.791,0
2400,5488,-301.384,0
2401,5488,-292.076,0
2402,5471,-285.250,0
2403,5451,-282.072,0
2404,5418,-283.010,0
2405,5411,-287.538,0
2406,5438,-294.180,0
2407,5481,-300.754,0
2408,5529,-304.801,0
2409,5562,-304.210,0
2410,5562,-297.872,0
2411,5531,-286.074,0
2412,5496,-270.517,0
2413,5485,-253.800,0
2414,5496,-238.457,0
2415,5515,-226.058,0
2416,5545,-216.947,0
2417,5569,-210.647,0
2418,5564,-206.432,0
2419,5518,-203.819,0
2420,5464,-202.911,0
2421,5420,-204.437,0
2422,5422,-209.272,0
2423,5459,-217.587,0
2424,5508,-228.196,0
2425,5549,-238.651,0
2426,5559,-246.145,0
2427,5553,-248.657,0
2428,5535,-245.621,0
2429,5512,-237.800,0
2430,5506,-226.681,0
2431,5517,-213.865,0
2432,5537,-200.744,0
2433,5562,-188.471,0
2434,5592,-178.020,0
2435,5607,-170.024,0
2436,5600,-164.443,0
2437,5581,-160.429,0
2438,5552,-156.659,0
2439,5539,-151.996,0
2440,5550,-146.100,0
2441,5591,-139.544,0
2442,5640,-133.299,0
2443,5665,-127.947,0
2444,5656,-123.247,0
2445,5643,-118.353,0
2446,5625,-112.311,0
2447,5627,-104.433,0
2448,5635,-94.488,0
2449,5652,-82.850,0
2450,5669,-70.604,0
2451,5675,-59.415,0
2452,5665,-51.057,0
2453,5660,-46.754,0
2454,5649,-46.569,0
2455,5656,-49.177,0
2456,5672,-52.223,0
2457,5703,-53.176,0
2458,5738,-50.233,0
2459,5755,-42.877,0
2460,5750,-31.928,0
2461,5719,-19.206,0
2462,5680,-6.993,0
2463,5648,2.549,0
2464,5660,7.903,0
2465,5700,8.673,0
2466,5739,5.842,0
2467,5766,1.451,0
2468,5775,-2.251,0
2469,5769,-3.633,0
2470,5748,-1.984,0
2471,5734,2.635,0
2472,5749,9.743,0
2473,5781,18.818,0
2474,5823,29.540,0
2475,5872,41.762,0
2476,5891,55.334,0
2477,5882,69.922,0
2478,5856,84.861,0
2479,5833,99.159,0
2480,5837,111.804,0
2481,5838,122.179,0
2482,5866,130.199,0
2483,5902,136.104,0
2484,5926,140.248,0
2485,5935,143.076,0
2486,5924,145.160,0
2487,5913,147.204,0
2488,5906,150.015,0
2489,5887,154.309,0
2490,5885,160.246,0
2491,5897,166.961,0
2492,5911,172.653,0
2493,5925,175.326,0
2494,5906,173.724,0
2495,5866,167.824,0
2496,5833,158.596,0
2497,5818,147.405,0
2498,5841,135.590,0
2499,5876,124.369,0
2500,5908,114.869,0
2501,5942,108.049,0
2502,5969,104.651,0
2503,5949,105.284,0
2504,5920,110.323,0
2505,5902,119.467,0
2506,5898,131.464,0
2507,5926,144.320,0
2508,5969,155.927,0
2509,6003,164.797,0
2510,6011,170.530,0
2511,6014,173.768,0
2512,6015,175.872,0
2513,6019,178.610,0
2514,6041,183.817,0
2515,6066,192.910,0
2516,6099,206.374,0
2517,6137,223.488,0
2518,6168,242.589,0
2519,6181,261.834,0
2520,6170,279.936,0
2521,6155,296.415,0
2522,6157,311.337,0
2523,6192,324.971,0
2524,6241,337.672,0
2525,6286,349.933,0
2526,6306,362.284,0
2527,6289,374.964,0
2528,6251,387.546,0
2529,6193,398.779,0
2530,6145,406.758,0
2531,6099,409.296,0
2532,6079,404.332,0
2533,6077,390.358,0
2534,6072,366.886,0
2535,6063,334.845,0
2536,6027,296.617,0
2537,5966,255.553,0
2538,5912,215.025,0
2539,5862,177.430,0
2540,5821,143.587,0
2541,5791,112.630,0
2542,5761,82.389,0
2543,5719,50.168,0
2544,5682,13.726,0
2545,5642,-27.819,0
2546,5606,-73.464,0
2547,5597,-120.451,0
2548,5615,-165.000,0
2549,5637,-203.268,0
2550,5662,-232.307,0
2551,5677,-250.787,0
2552,5666,-259.198,0
2553,5637,-259.526,0
2554,5588,-254.678,0
2555,5552,-247.912,0
2556,5541,-242.322,0
2557,5557,-240.299,0
2558,5579,-243.048,0
2559,5599,-250.411,0
2560,5587,-261.128,0
2561,5569,-273.402,0
2562,5549,-285.447,0
2563,5537,-295.735,0
2564,5555,-303.001,0
2565,5580,-306.223,0
2566,5624,-304.724,0
2567,5661,-298.346,0
2568,5675,-287.545,0
2569,5660,-273.363,0
2570,5630,-257.343,0
2571,5592,-241.353,0
2572,5581,-227.289,0
2573,5589,-216.671,0
2574,5601,-210.309,0
2575,5651,-208.183,0
2576,5713,-209.369,0
2577,5790,-211.734,0
2578,5901,-211.562,0
2579,6019,-203.485,0
2580,6135,-181.088,0
2581,6267,-138.379,0
2582,6434,-71.568,0
2583,6632,19.975,0
2584,6875,134.198,0
2585,7206,268.135,0
2586,7640,420.499,0
2587,8139,594.264,0
2588,8644,797.638,0
2589,9069,1041.971,0
2590,9301,1336.410,0
2591,9252,1680.644,0
2592,8879,2058.141,0
2593,8173,2432.591,0
2594,7241,2749.650,0
2595,6291,2944.904,0
2596,5477,2957.544,0
2597,4958,2746.990,0
2598,4720,2307.432,0
2599,4707,1674.731,0
2600,4830,922.173,0
2601,5000,145.757,0
2602,5165,-556.403,0
2603,5292,-1104.288,0
2604,5381,-1450.433,0
2605,5431,-1585.711,0
2606,5445,-1536.322,0
2607,5462,-1353.995,0
2608,5464,-1102.397,0
2609,5454,-843.089,0
2610,5419,-624.259,0
2611,5369,-474.404,0
2612,5327,-401.504,0
2613,5294,-396.680,0
2614,5294,-440.496,0
2615,5320,-509.853,0
2616,5360,-583.671,0
2617,5389,-646.387,0
2618,5393,-689.188,0
2619,5387,-709.481,0
2620,5372,-709.267,0
2621,5372,-693.126,0
2622,5402,-666.419,0
2623,5443,-634.076,0
2624,5493,-600.012,0
2625,5529,-567.079,0
2626,5553,-537.187,0
2627,5558,-511.288,0
2628,5543,-489.277,0
2629,5522,-470.115,0
2630,5519,-452.375,0
2631,5549,-434.925,0
2632,5586,-417.321,0
2633,5633,-399.780,0
2634,5664,-382.876,0
2635,5671,-367.082,0
2636,5676,-352.362,0
2637,5657,-338.006,0
2638,5636,-322.911,0
2639,5641,-306.303,0
2640,5674,-288.396,0
2641,5731,-270.335,0
2642,5781,-253.460,0
2643,5801,-238.449,0
2644,5796,-224.963,0
2645,5792,-211.880,0
2646,5784,-197.782,0
2647,5791,-181.483,0
2648,5810,-162.555,0
2649,5849,-141.679,0
2650,5887,-120.491,0
2651,5898,-100.940,0
2652,5883,-84.572,0
2653,5861,-72.127,0
2654,5855,-63.415,0
2655,5864,-57.352,0
2656,5885,-52.228,0
2657,5903,-46.376,0
2658,5933,-38.973,0
2659,5953,-30.378,0
2660,5965,-21.675,0
2661,5974,-13.745,0
2662,5981,-6.466,0
2663,5992,1.466,0
2664,6018,11.969,0
2665,6054,26.578,0
2666,6094,45.635,0
2667,6134,68.094,0
2668,6157,92.025,0
2669,6154,115.499,0
2670,6141,137.253,0
2671,6125,156.834,0
2672,6122,174.287,0
2673,6146,189.693,0
2674,6191,202.918,0
2675,6236,213.781,0
2676,6256,222.404,0
2677,6262,229.392,0
2678,6247,235.740,0
2679,6226,242.543,0
2680,6230,250.632,0
2681,6258,260.316,0
2682,6307,271.419,0
2683,6351,283.517,0
2684,6388,296.159,0
2685,6405,309.028,0
2686,6405,322.086,0
2687,6401,335.633,0
2688,6418,350.214,0
2689,6467,366.477,0
2690,6534,385.101,0
2691,6607,406.723,0
2692,6661,431.756,0
2693,6682,460.139,0
2694,6671,491.109,0
2695,6651,523.144,0
2696,6639,554.183,0
2697,6657,582.140,0
2698,6704,605.505,0
2699,6774,623.826,0
2700,6837,637.899,0
2701,6874,649.536,0
2702,6873,660.944,0
2703,6852,673.904,0
2704,6827,689.121,0
2705,6812,706.016,0
2706,6827,722.964,0
2707,6858,737.843,0
2708,6906,748.742,0
2709,6945,754.636,0
2710,6955,755.817,0
2711,6942,753.813,0
2712,6909,750.769,0
2713,6888,748.574,0
2714,6894,748.177,0
2715,6917,749.412,0
2716,6956,751.308,0
2717,6978,752.599,0
2718,6969,752.177,0
2719,6933,749.277,0
2720,6868,743.398,0
2721,6795,734.056,0
2722,6736,720.481,0
2723,6693,701.458,0
2724,6657,675.465,0
2725,6619,641.026,0
2726,6569,597.166,0
2727,6493,543.845,0
2728,6402,482.183,0
2729,6305,414.287,0
2730,6232,342.746,0
2731,6193,270.085,0
2732,6175,198.438,0
2733,6160,129.462,0
2734,6148,64.328,0
2735,6103,3.808,0
2736,6059,-51.583,0
2737,5998,-101.466,0
2738,5961,-145.559,0
2739,5947,-183.744,0
2740,5943,-216.178,0
2741,5942,-243.451,0
2742,5928,-266.759,0
2743,5900,-287.868,0
2744,5839,-308.749,0
2745,5777,-331.094,0
2746,5724,-355.947,0
2747,5717,-383.464,0
2748,5740,-412.745,0
2749,5779,-441.855,0
2750,5804,-468.228,0
2751,5805,-489.462,0
2752,5767,-504.154,0
2753,5715,-512.404,0
2754,5668,-515.775,0
2755,5639,-516.714,0
2756,5627,-517.769,0
2757,5635,-521.011,0
2758,5668,-527.739,0
2759,5704,-538.201,0
2760,5724,-551.267,0
2761,5702,-564.460,0
2762,5665,-574.717,0
2763,5620,-579.651,0
2764,5602,-578.621,0
2765,5610,-573.007,0
2766,5627,-565.589,0
2767,5647,-559.458,0
2768,5654,-556.954,0
2769,5623,-558.986,0
2770,5577,-565.005,0
2771,5536,-573.582,0
2772,5517,-583.154,0
2773,5520,-592.513,0
2774,5535,-601.017,0
2775,5551,-608.611,0
2776,5554,-615.670,0
2777,5545,-622.669,0
2778,5527,-629.735,0
2779,5495,-636.364,0
2780,5477,-641.548,0
2781,5478,-644.312,0
2782,5496,-644.255,0
2783,5519,-641.775,0
2784,5523,-637.945,0
2785,5499,-634.185,0
2786,5463,-631.914,0
2787,5428,-632.183,0
2788,5415,-635.304,0
2789,5424,-640.616,0
2790,5441,-646.632,0
2791,5460,-651.648,0
2792,5464,-654.530,0
2793,5439,-655.240,0
2794,5401,-654.839,0
2795,5364,-654.988,0
2796,5327,-657.150,0
2797,5330,-661.940,0
2798,5355,-668.885,0
2799,5404,-676.540,0
2800,5458,-682.850,0
2801,5484,-685.621,0
2802,5479,-683.052,0
2803,5453,-674.268,0
2804,5417,-659.659,0
2805,5392,-640.862,0
2806,5391,-620.426,0
2807,5396,-601.266,0
2808,5419,-586.071,0
2809,5426,-576.771,0
2810,5412,-574.116,0
2811,5386,-577.555,0
2812,5353,-585.430,0
2813,5329,-595.413,0
2814,5323,-605.108,0
2815,5335,-612.670,0
2816,5351,-617.239,0
2817,5361,-619.048,0
2818,5356,-619.160,0
2819,5345,-618.901,0
2820,5324,-619.170,0
2821,5306,-619.976,0
2822,5313,-620.477,0
2823,5339,-619.408,0
2824,5378,-615.594,0
2825,5411,-608.359,0
2826,5425,-597.728,0
2827,5410,-584.406,0
2828,5380,-569.595,0
2829,5345,-554.711,0
2830,5334,-541.090,0
2831,5343,-529.704,0
2832,5369,-520.983,0
2833,5402,-514.812,0
2834,5421,-510.667,0
2835,5399,-507.819,0
2836,5360,-505.647,0
2837,5317,-503.935,0
2838,5292,-502.890,0
2839,5286,-502.858,0
2840,5305,-504.034,0
2841,5336,-506.321,0
2842,5363,-509.320,0
2843,5359,-512.389,0
2844,5318,-514.852,0
2845,5270,-516.373,0
2846,5235,-517.196,0
2847,5242,-517.945,0
2848,5264,-519.063,0
2849,5308,-520.375,0
2850,5345,-521.095,0
2851,5353,-520.192,0
2852,5317,-516.914,0
2853,5257,-511.336,0
2854,5202,-504.643,0
2855,5178,-498.848,0
2856,5194,-495.959,0
2857,5235,-497.031,0
2858,5276,-501.637,0
2859,5296,-508.052,0
2860,5288,-514.002,0
2861,5258,-517.517,0
2862,5219,-517.496,0
2863,5206,-513.838,0
2864,5211,-507.187,0
2865,5232,-498.541,0
2866,5254,-489.019,0
2867,5260,-479.837,0
2868,5237,-472.311,0
2869,5197,-467.739,0
2870,5152,-467.116,0
2871,5113,-470.786,0
2872,5108,-478.255,0
2873,5117,-488.283,0
2874,5145,-499.236,0
2875,5162,-509.571,0
2876,5161,-518.221,0
2877,5135,-524.758,0
2878,5096,-529.304,0
2879,5064,-532.267,0
2880,5044,-534.075,0
2881,5045,-535.042,0
2882,5072,-535.438,0
2883,5098,-535.562,0
2884,5110,-535.693,0
2885,5090,-536.012,0
2886,5047,-536.611,0
2887,5010,-537.572,0
2888,5000,-538.907,0
2889,5016,-540.340,0
2890,5057,-541.129,0
2891,5098,-540.191,0
2892,5131,-536.488,0
2893,5136,-529.416,0
2894,5115,-518.996,0
2895,5076,-505.859,0
2896,5038,-491.138,0
2897,5028,-476.321,0
2898,5027,-463.021,0
2899,5046,-452.734,0
2900,5083,-446.568,0
2901,5115,-444.827,0
2902,5124,-446.528,0
2903,5112,-449.362,0
2904,5095,-450.326,0
2905,5100,-446.724,0
2906,5124,-436.973,0
2907,5150,-420.952,0
2908,5171,-400.009,0
2909,5171,-376.717,0
2910,5147,-354.336,0
2911,5122,-336.005,0
2912,5100,-323.817,0
2913,5098,-318.127,0
2914,5119,-317.438,0
2915,5168,-318.942,0
2916,5238,-319.377,0
2917,5310,-315.711,0
2918,5369,-305.469,0
2919,5401,-286.818,0
2920,5416,-258.695,0
2921,5424,-221.070,0
2922,5434,-175.237,0
2923,5449,-123.958,0
2924,5464,-71.323,0
2925,5476,-22.223,0
2926,5454,18.536,0
2927,5404,47.144,0
2928,5349,61.405,0
2929,5306,61.052,0
2930,5293,47.834,0
2931,5294,25.283,0
2932,5305,-2.055,0
2933,5312,-29.783,0
2934,5292,-54.759,0
2935,5250,-75.699,0
2936,5191,-93.130,0
2937,5127,-108.772,0
2938,5083,-124.701,0
2939,5073,-142.576,0
2940,5078,-163.120,0
2941,5070,-186.044,0
2942,5056,-210.499,0
2943,5016,-235.723,0
2944,4968,-261.355,0
2945,4915,-287.299,0
2946,4894,-313.328,0
2947,4909,-338.655,0
2948,4922,-361.735,0
2949,4935,-380.668,0
2950,4941,-394.107,0
2951,4931,-402.000,0
2952,4910,-405.561,0
2953,4868,-406.617,0
2954,4838,-406.880,0
2955,4840,-407.468,0
2956,4867,-408.660,0
2957,4902,-409.870,0
2958,4919,-410.013,0
2959,4918,-408.187,0
2960,4905,-404.246,0
2961,4878,-398.807,0
2962,4858,-392.766,0
2963,4862,-386.725,0
2964,4895,-380.634,0
2965,4948,-373.718,0
2966,5003,-364.713,0
2967,5028,-352.350,0
2968,5042,-335.907,0
2969,5031,-315.532,0
2970,5007,-292.164,0
2971,4997,-267.222,0
2972,5006,-242.279,0
2973,5036,-218.757,0
2974,5094,-197.639,0
2975,5181,-179.130,0
2976,5297,-162.076,0
2977,5436,-143.284,0
2978,5560,-117.286,0
2979,5680,-77.186,0
2980,5821,-16.592,0
2981,5997,68.394,0
2982,6217,178.302,0
2983,6490,310.937,0
2984,6841,463.250,0
2985,7282,633.892,0
2986,7783,825.566,0
2987,8259,1045.827,0
2988,8644,1304.908,0
2989,8868,1610.447,0
2990,8861,1960.794,0
2991,8572,2339.401,0
2992,7954,2712.326,0
2993,7090,3029.894,0
2994,6175,3233.157,0
2995,5370,3265.378,0
2996,4829,3086.946,0
2997,4559,2689.362,0
2998,4516,2102.803,0
2999,4646,1393.473,0
3000,4842,650.987,0
3001,5029,-30.334,0
3002,5171,-570.830,0
3003,5253,-920.447,0
3004,5293,-1065.848,0
3005,5305,-1028.819,0
3006,5299,-857.469,0
3007,5291,-613.275,0
3008,5291,-357.349,0
3009,5287,-138.867,0
3010,5265,12.170,0
3011,5237,86.721,0
3012,5200,93.437,0
3013,5182,52.103,0
3014,5188,-13.816,0
3015,5221,-83.339,0
3016,5257,-141.576,0
3017,5274,-180.697,0
3018,5266,-199.046,0
3019,5240,-199.335,0
3020,5210,-186.642,0
3021,5195,-166.702,0
3022,5213,-144.689,0
3023,5243,-124.505,0
3024,5270,-108.521,0
3025,5293,-97.716,0
3026,5296,-91.949,0
3027,5292,-90.118,0
3028,5287,-90.256,0
3029,5289,-89.789,0
3030,5311,-86.097,0
3031,5347,-77.261,0
3032,5393,-62.665,0
3033,5440,-43.114,0
3034,5443,-20.406,0
3035,5413,3.254,0
3036,5369,25.619,0
3037,5326,44.604,0
3038,5302,58.510,0
3039,5310,66.236,0
3040,5338,67.434,0
3041,5373,62.638,0
3042,5398,53.304,0
3043,5407,41.722,0
3044,5403,30.761,0
3045,5387,23.409,0
3046,5383,22.104,0
3047,5389,28.023,0
3048,5407,40.615,0
3049,5433,57.640,0
3050,5444,75.774,0
3051,5445,91.623,0
3052,5444,102.786,0
3053,5444,108.671,0
3054,5444,110.709,0
3055,5469,111.755,0
3056,5501,114.912,0
3057,5549,122.397,0
3058,5592,134.951,0
3059,5608,151.939,0
3060,5584,171.831,0
3061,5538,192.615,0
3062,5484,211.984,0
3063,5459,227.509,0
3064,5467,237.029,0
3065,5503,239.248,0
3066,5540,234.280,0
3067,5556,223.755,0
3068,5549,210.368,0
3069,5528,197.110,0
3070,5509,186.573,0
3071,5507,180.553,0
3072,5526,179.906,0
3073,5563,184.559,0
3074,5615,193.645,0
3075,5660,205.856,0
3076,5684,219.961,0
3077,5694,235.248,0
3078,5689,251.680,0
3079,5690,269.704,0
3080,5707,289.803,0
3081,5754,312.057,0
3082,5819,336.006,0
3083,5875,360.896,0
3084,5907,386.051,0
3085,5909,411.042,0
3086,5901,435.629,0
3087,5883,459.625,0
3088,5889,482.755,0
3089,5925,504.603,0
3090,5980,524.728,0
3091,6035,542.925,0
3092,6088,559.412,0
3093,6118,574.931,0
3094,6132,590.739,0
3095,6133,608.373,0
3096,6131,629.142,0
3097,6148,653.482,0
3098,6179,680.542,0
3099,6224,708.305,0
3100,6259,734.231,0
3101,6275,756.131,0
3102,6262,772.822,0
3103,6233,784.280,0
3104,6206,791.296,0
3105,6197,794.900,0
3106,6223,795.912,0
3107,6263,794.858,0
3108,6308,792.198,0
3109,6318,788.569,0
3110,6292,784.750,0
3111,6251,781.287,0
3112,6209,778.143,0
3113,6197,774.697,0
3114,6201,770.086,0
3115,6211,763.573,0
3116,6210,754.605,0
3117,6182,742.596,0
3118,6130,726.719,0
3119,6047,705.945,0
3120,5949,679.246,0
3121,5860,645.750,0
3122,5792,604.796,0
3123,5744,556.016,0
3124,5694,499.433,0
3125,5640,435.510,0
3126,5561,365.132,0
3127,5460,289.578,0
3128,5364,210.458,0
3129,5282,129.639,0
3130,5227,49.196,0
3131,5191,-28.759,0
3132,5184,-102.386,0
3133,5169,-170.373,0
3134,5125,-232.017,0
3135,5059,-287.280,0
3136,4985,-336.802,0
3137,4915,-381.713,0
3138,4875,-423.238,0
3139,4868,-462.303,0
3140,4902,-499.199,0
3141,4923,-533.404,0
3142,4926,-563.727,0
3143,4909,-588.867,0
3144,4879,-607.970,0
3145,4834,-620.859,0
3146,4814,-628.020,0
3147,4819,-630.467,0
3148,4837,-629.500,0
3149,4873,-626.464,0
3150,4900,-622.526,0
3151,4904,-618.446,0
3152,4890,-614.412,0
3153,4878,-610.048,0
3154,4878,-604.507,0
3155,4882,-596.669,0
3156,4881,-585.637,0
3157,4896,-571.481,0
3158,4904,-555.670,0
3159,4894,-540.721,0
3160,4876,-529.271,0
3161,4856,-523.064,0
3162,4850,-522.225,0
3163,4864,-525.088,0
3164,4894,-528.692,0
3165,4936,-529.771,0
3166,4966,-525.836,0
3167,4977,-515.929,0
3168,4964,-500.797,0
3169,4926,-482.505,0
3170,4891,-463.738,0
3171,4888,-447.016,0
3172,4905,-433.967,0
3173,4957,-424.865,0
3174,5006,-418.623,0
3175,5034,-413.267,0
3176,5036,-406.720,0
3177,5018,-397.564,0
3178,4976,-385.431,0
3179,4952,-371.008,0
3180,4953,-355.747,0
3181,4973,-341.337,0
3182,4999,-329.181,0
3183,5044,-320.077,0
3184,5044,-314.058,0
3185,5020,-310.440,0
3186,4959,-308.276,0
3187,4927,-306.959,0
3188,4933,-306.416,0
3189,4956,-306.659,0
3190,4979,-307.317,0
3191,5010,-307.720,0
3192,5026,-307.303,0
3193,5032,-305.748,0
3194,5003,-302.820,0
3195,4981,-298.260,0
3196,4972,-291.875,0
3197,5002,-283.631,0
3198,5039,-273.593,0
3199,5077,-261.876,0
3200,5099,-248.754,0
3201,5104,-234.781,0
3202,5096,-220.673,0
3203,5072,-206.989,0
3204,5070,-193.896,0
3205,5093,-181.134,0
3206,5121,-168.143,0
3207,5147,-154.388,0
3208,5161,-139.857,0
3209,5160,-125.351,0
3210,5151,-112.221,0
3211,5132,-101.665,0
3212,5115,-94.071,0
3213,5125,-88.842,0
3214,5151,-84.682,0
3215,5189,-80.112,0
3216,5217,-73.991,0
3217,5228,-65.893,0
3218,5226,-56.171,0
3219,5216,-45.608,0
3220,5204,-34.881,0
3221,5205,-24.182,0
3222,5228,-13.241,0
3223,5251,-1.660,0
3224,5271,10.652,0
3225,5278,23.131,0
3226,5259,34.561,0
3227,5223,43.438,0
3228,5185,48.473,0
3229,5175,49.034,0
3230,5197,45.489,0
3231,5228,39.312,0
3232,5276,32.760,0
3233,5313,28.201,0
3234,5325,27.492,0
3235,5315,31.599,0
3236,5289,40.470,0
3237,5268,53.142,0
3238,5273,68.046,0
3239,5295,83.442,0
3240,5323,97.819,0
3241,5363,110.114,0
3242,5392,119.842,0
3243,5401,127.267,0
3244,5387,133.429,0
3245,5366,139.785,0
3246,5361,147.607,0
3247,5368,157.470,0
3248,5402,169.077,0
3249,5442,181.457,0
3250,5469,193.451,0
3251,5478,204.205,0
3252,5463,213.434,0
3253,5434,221.374,0
3254,5414,228.478,0
3255,5417,235.070,0
3256,5441,241.172,0
3257,5477,246.589,0
3258,5500,251.084,0
3259,5508,254.522,0
3260,5500,256.949,0
3261,5478,258.659,0
3262,5456,260.176,0
3263,5462,262.096,0
3264,5484,264.899,0
3265,5509,268.822,0
3266,5526,273.721,0
3267,5520,278.921,0
3268,5493,283.248,0
3269,5455,285.322,0
3270,5418,284.004,0
3271,5413,278.821,0
3272,5435,270.242,0
3273,5464,259.681,0
3274,5495,249.101,0
3275,5522,240.356,0
3276,5535,234.739,0
3277,5537,232.978,0
3278,5515,235.425,0
3279,5487,242.050,0
3280,5482,252.131,0
3281,5503,264.077,0
3282,5532,275.775,0
3283,5557,285.259,0
3284,5573,291.301,0
3285,5579,293.761,0
3286,5575,293.683,0
3287,5573,293.049,0
3288,5584,294.176,0
3289,5594,298.911,0
3290,5609,307.895,0
3291,5623,320.172,0
3292,5624,333.431,0
3293,5603,344.832,0
3294,5579,351.961,0
3295,5562,353.563,0
3296,5575,349.919,0
3297,5619,342.851,0
3298,5699,335.399,0
3299,5783,331.290,0
3300,5846,334.220,0
3301,5879,346.992,0
3302,5891,370.721,0
3303,5900,404.516,0
3304,5917,445.828,0
3305,5929,491.187,0
3306,5941,536.823,0
3307,5949,578.916,0
3308,5933,613.740,0
3309,5897,637.938,0
3310,5844,648.983,0
3311,5798,645.706,0
3312,5759,628.750,0
3313,5727,600.607,0
3314,5711,565.006,0
3315,5715,525.881,0
3316,5709,486.484,0
3317,5672,448.929,0
3318,5620,414.012,0
3319,5564,381.324,0
3320,5504,349.743,0
3321,5456,318.071,0
3322,5426,285.412,0
3323,5401,251.220,0
3324,5389,215.188,0
3325,5379,177.223,0
3326,5354,137.652,0
3327,5315,97.465,0
3328,5276,58.252,0
3329,5265,21.881,0
3330,5272,-9.826,0
3331,5300,-35.323,0
3332,5330,-53.579,0
3333,5341,-64.339,0
3334,5329,-68.333,0
3335,5302,-67.274,0
3336,5267,-63.524,0
3337,5243,-59.494,0
3338,5232,-57.066,0
3339,5246,-57.272,0
3340,5272,-60.274,0
3341,5293,-65.518,0
3342,5297,-72.012,0
3343,5285,-78.647,0
3344,5262,-84.456,0
3345,5243,-88.723,0
3346,5242,-90.994,0
3347,5261,-91.037,0
3348,5303,-88.777,0
3349,5341,-84.229,0
3350,5359,-77.466,0
3351,5354,-68.714,0
3352,5335,-58.491,0
3353,5305,-47.606,0
3354,5292,-37.013,0
3355,5329,-27.543,0
3356,5408,-19.395,0
3357,5521,-11.479,0
3358,5656,-1.014,0
3359,5779,16.337,0
3360,5871,45.673,0
3361,5938,91.453,0
3362,6012,155.974,0
3363,6142,238.596,0
3364,6345,336.406,0
3365,6647,446.228,0
3366,7050,567.224,0
3367,7512,703.050,0
3368,7960,862.422,0
3369,8335,1057.127,0
3370,8574,1297.451,0
3371,8624,1586.257,0
3372,8438,1913.583,0
3373,7990,2253.468,0
3374,7292,2564.236,0
3375,6487,2792.977,0
3376,5744,2884.702,0
3377,5164,2795.451,0
3378,4802,2506.016,0
3379,4660,2031.139,0
3380,4705,1420.134,0
3381,4851,748.212,0
3382,5035,100.975,0
3383,5199,-443.439,0
3384,5295,-829.624,0
3385,5325,-1033.938,0
3386,5299,-1065.767,0
3387,5244,-961.638,0
3388,5201,-774.375,0
3389,5180,-560.366,0
3390,5183,-367.951,0
3391,5198,-229.438,0
3392,5197,-158.026,0
3393,5175,-149.612,0
3394,5141,-188.170,0
3395,5117,-252.553,0
3396,5119,-322.547,0
3397,5149,-382.793,0
3398,5176,-424.310,0
3399,5203,-444.243,0
3400,5212,-444.575,0
3401,5197,-430.336,0
3402,5172,-407.796,0
3403,5145,-382.984,0
3404,5146,-360.681,0
3405,5160,-343.828,0
3406,5187,-333.385,0
3407,5220,-328.632,0
3408,5244,-327.732,0
3409,5244,-328.331,0
3410,5230,-328.135,0
3411,5215,-325.435,0
3412,5209,-319.408,0
3413,5224,-310.121,0
3414,5257,-298.299,0
3415,5302,-284.936,0
3416,5332,-270.883,0
3417,5338,-256.616,0
3418,5316,-242.341,0
3419,5284,-228.313,0
3420,5261,-215.103,0
3421,5261,-203.576,0
3422,5277,-194.570,0
3423,5321,-188.518,0
3424,5362,-185.128,0
3425,5388,-183.264,0
3426,5396,-181.145,0
3427,5392,-176.838,0
3428,5377,-168.824,0
3429,5378,-156.462,0
3430,5392,-140.215,0
3431,5426,-121.504,0
3432,5463,-102.210,0
3433,5487,-84.049,0
3434,5487,-68.115,0
3435,5474,-54.754,0
3436,5465,-43.713,0
3437,5470,-34.318,0
3438,5500,-25.600,0
3439,5544,-16.416,0
3440,5587,-5.658,0
3441,5622,7.456,0
3442,5654,23.195,0
3443,5673,41.434,0
3444,5676,61.983,0
3445,5666,84.705,0
3446,5676,109.247,0
3447,5713,134.739,0
3448,5770,159.957,0
3449,5825,183.881,0
3450,5862,206.183,0
3451,5877,227.300,0
3452,5877,248.095,0
3453,5882,269.411,0
3454,5904,291.779,0
3455,5938,315.353,0
3456,5993,339.978,0
3457,6044,365.293,0
3458,6070,390.815,0
3459,6079,415.953,0
3460,6078,439.989,0
3461,6089,462.255,0
3462,6118,482.531,0
3463,6167,501.381,0
3464,6232,520.133,0
3465,6298,540.462,0
3466,6353,563.815,0
3467,6374,590.909,0
3468,6366,621.425,0
3469,6348,653.912,0
3470,6338,686.033,0
3471,6363,715.198,0
3472,6414,739.432,0
3473,6476,758.104,0
3474,6521,772.105,0
3475,6553,783.345,0
3476,6584,793.993,0
3477,6591,805.975,0
3478,6580,820.713,0
3479,6580,838.756,0
3480,6595,859.424,0
3481,6628,880.889,0
3482,6686,900.813,0
3483,6741,917.352,0
3484,6753,929.999,0
3485,6742,939.636,0
3486,6720,947.739,0
3487,6708,955.442,0
3488,6720,963.065,0
3489,6741,970.185,0
3490,6772,975.978,0
3491,6798,979.584,0
3492,6800,980.418,0
3493,6776,978.334,0
3494,6736,973.524,0
3495,6699,966.242,0
3496,6670,956.551,0
3497,6645,944.167,0
3498,6621,928.362,0
3499,6594,907.947,0
3500,6548,881.502,0
3501,6484,847.825,0
3502,6394,806.356,0
3503,6303,757.303,0
3504,6243,701.494,0
3505,6195,640.233,0
3506,6159,575.189,0
3507,6119,508.118,0
3508,6080,440.500,0
3509,6016,373.362,0
3510,5937,307.353,0
3511,5847,242.838,0
3512,5777,179.914,0
3513,5730,118.469,0
3514,5711,58.375,0
3515,5710,-0.239,0
3516,5705,-56.784,0
3517,5688,-110.188,0
3518,5649,-159.100,0
3519,5605,-202.263,0
3520,5569,-238.870,0
3521,5549,-268.768,0
3522,5562,-292.431,0
3523,5586,-310.743,0
3524,5592,-324.721,0
3525,5575,-335.433,0
3526,5555,-344.110,0
3527,5519,-352.056,0
3528,5498,-360.274,0
3529,5487,-369.101,0
3530,5503,-378.131,0
3531,5528,-386.447,0
3532,5547,-393.040,0
3533,5559,-397.250,0
3534,5560,-398.990,0
3535,5547,-398.580,0
3536,5539,-396.378,0
3537,5545,-392.463,0
3538,5577,-386.527,0
3539,5615,-377.967,0
3540,5649,-366.214,0
3541,5667,-351.203,0
3542,5650,-333.738,0
3543,5615,-315.563,0
3544,5573,-299.062,0
3545,5537,-286.663,0
3546,5529,-280.167,0
3547,5550,-280.248,0
3548,5603,-286.173,0
3549,5649,-295.792,0
3550,5675,-305.902,0
3551,5680,-313.051,0
3552,5661,-314.495,0
3553,5636,-308.922,0
3554,5621,-296.772,0
3555,5621,-280.076,0
3556,5628,-261.909,0
3557,5649,-245.634,0
3558,5659,-234.084,0
3559,5647,-228.857,0
3560,5628,-230.009,0
3561,5607,-236.206,0
3562,5600,-245.175,0
3563,5619,-254.279,0
3564,5659,-261.066,0
3565,5701,-263.674,0
3566,5725,-261.092,0
3567,5731,-253.327,0
3568,5732,-241.338,0
3569,5703,-226.644,0
3570,5677,-210.889,0
3571,5674,-195.660,0
3572,5688,-182.393,0
3573,5700,-172.196,0
3574,5719,-165.767,0
3575,5707,-163.410,0
3576,5680,-165.086,0
3577,5641,-170.477,0
3578,5608,-179.027,0
3579,5616,-189.881,0
3580,5652,-201.716,0
3581,5705,-212.594,0
3582,5742,-220.185,0
3583,5744,-222.491,0
3584,5725,-218.752,0
3585,5672,-209.971,0
3586,5633,-198.718,0
3587,5616,-188.273,0
3588,5626,-181.456,0
3589,5662,-179.670,0
3590,5707,-182.562,0
3591,5743,-188.304,0
3592,5759,-194.252,0
3593,5750,-197.743,0
3594,5723,-196.805,0
3595,5699,-190.674,0
3596,5685,-180.000,0
3597,5699,-166.676,0
3598,5737,-153.240,0
3599,5772,-141.999,0
3600,5794,-134.230,0
3601,5791,-129.852,0
3602,5772,-127.669,0
3603,5752,-125.969,0
3604,5747,-123.197,0
3605,5762,-118.433,0
3606,5803,-111.539,0
3607,5844,-102.966,0
3608,5874,-93.367,0
3609,5872,-83.267,0
3610,5855,-72.990,0
3611,5829,-62.747,0
3612,5797,-52.794,0
3613,5782,-43.651,0
3614,5807,-36.231,0
3615,5834,-31.600,0
3616,5855,-30.447,0
3617,5852,-32.747,0
3618,5846,-37.757,0
3619,5820,-44.192,0
3620,5812,-50.456,0
3621,5801,-55.003,0
3622,5819,-56.786,0
3623,5834,-55.639,0
3624,5837,-52.384,0
3625,5823,-48.686,0
3626,5791,-46.655,0
3627,5746,-48.237,0
3628,5708,-54.640,0
3629,5690,-66.004,0
3630,5692,-81.413,0
3631,5706,-99.229,0
3632,5710,-117.653,0
3633,5707,-135.315,0
3634,5693,-151.573,0
3635,5659,-166.366,0
3636,5603,-179.880,0
3637,5572,-192.441,0
3638,5558,-204.548,0
3639,5557,-216.804,0
3640,5560,-229.791,0
3641,5560,-244.026,0
3642,5549,-259.860,0
3643,5518,-277.265,0
3644,5477,-295.694,0
3645,5452,-314.184,0
3646,5456,-331.572,0
3647,5476,-346.652,0
3648,5493,-358.352,0
3649,5500,-366.107,0
3650,5488,-370.229,0
3651,5455,-371.961,0
3652,5406,-373.123,0
3653,5365,-375.570,0
3654,5352,-380.686,0
3655,5367,-388.961,0
3656,5405,-399.779,0
3657,5458,-411.482,0
3658,5487,-421.722,0
3659,5489,-428.028,0
3660,5461,-428.562,0
3661,5421,-422.793,0
3662,5384,-411.796,0
3663,5385,-398.021,0
3664,5394,-384.543,0
3665,5411,-374.152,0
3666,5424,-368.709,0
3667,5425,-368.856,0
3668,5418,-373.939,0
3669,5406,-382.116,0
3670,5410,-390.690,0
3671,5432,-396.664,0
3672,5478,-397.368,0
3673,5526,-391.025,0
3674,5569,-377.108,0
3675,5591,-356.407,0
3676,5589,-330.776,0
3677,5564,-302.651,0
3678,5536,-274.588,0
3679,5516,-248.936,0
3680,5498,-227.686,0
3681,5489,-212.488,0
3682,5481,-204.741,0
3683,5458,-205.508,0
3684,5417,-215.259,0
3685,5362,-233.614,0
3686,5300,-259.289,0
3687,5252,-290.313,0
3688,5230,-324.422,0
3689,5221,-359.457,0
3690,5225,-393.655,0
3691,5223,-425.806,0
3692,5189,-455.257,0
3693,5125,-481.910,0
3694,5039,-506.340,0
3695,4958,-529.895,0
3696,4901,-554.539,0
3697,4861,-582.363,0
3698,4851,-614.950,0
3699,4846,-652.830,0
3700,4820,-695.178,0
3701,4789,-739.932,0
3702,4760,-784.245,0
3703,4748,-824.947,0
3704,4751,-858.883,0
3705,4775,-883.332,0
3706,4807,-896.549,0
3707,4839,-898.242,0
3708,4853,-889.714,0
3709,4846,-873.565,0
3710,4816,-853.092,0
3711,4763,-831.653,0
3712,4719,-812.282,0
3713,4708,-797.499,0
3714,4729,-789.011,0
3715,4763,-787.250,0
3716,4780,-791.140,0
3717,4777,-798.425,0
3718,4758,-806.428,0
3719,4734,-812.773,0
3720,4711,-815.787,0
3721,4701,-814.661,0
3722,4716,-809.499,0
3723,4738,-801.214,0
3724,4766,-791.204,0
3725,4762,-780.929,0
3726,4760,-771.543,0
3727,4768,-763.565,0
3728,4804,-756.434,0
3729,4898,-748.054,0
3730,5028,-734.629,0
3731,5170,-711.095,0
3732,5304,-672.297,0
3733,5427,-614.554,0
3734,5561,-536.730,0
3735,5727,-440.057,0
3736,5956,-326.663,0
3737,6303,-197.438,0
3738,6762,-49.994,0
3739,7264,122.388,0
3740,7712,329.702,0
3741,8006,581.381,0
3742,8076,880.463,0
3743,7869,1217.763,0
3744,7378,1568.246,0
3745,6657,1891.055,0
3746,5845,2133.951,0
3747,5118,2242.347,0
3748,4591,2172.053,0
3749,4261,1902.734,0
3750,4107,1447.175,0
3751,4106,852.220,0
3752,4212,190.685,0
3753,4349,-453.177,0
3754,4499,-1000.683,0
3755,4619,-1393.990,0
3756,4688,-1606.016,0
3757,4707,-1643.004,0
3758,4679,-1539.706,0
3759,4619,-1348.899,0
3760,4539,-1128.277,0
3761,4461,-928.218,0
3762,4413,-783.233,0
3763,4395,-708.452,0
3764,4410,-701.003,0
3765,4444,-744.976,0
3766,4475,-818.018,0
3767,4493,-897.619,0
3768,4497,-965.719,0
3769,4481,-1011.024,0
3770,4459,-1029.286,0
3771,4458,-1022.223,0
3772,4474,-995.657,0
3773,4505,-957.395,0
3774,4533,-915.308,0
3775,4551,-875.933,0
3776,4545,-843.631,0
3777,4545,-820.239,0
3778,4539,-805.100,0
3779,4550,-795.492,0
3780,4570,-787.539,0
3781,4611,-777.449,0
3782,4652,-762.629,0
3783,4671,-742.273,0
3784,4670,-717.376,0
3785,4649,-690.240,0
3786,4620,-663.649,0
3787,4609,-639.971,0
3788,4630,-620.474,0
3789,4671,-605.005,0
3790,4714,-592.157,0
3791,4737,-579.974,0
3792,4729,-566.906,0
3793,4712,-552.518,0
3794,4695,-537.479,0
3795,4697,-522.830,0
3796,4717,-509.049,0
3797,4760,-495.582,0
3798,4798,-481.089,0
3799,4831,-464.236,0
3800,4845,-444.505,0
3801,4832,-422.537,0
3802,4807,-399.884,0
3803,4791,-378.388,0
3804,4789,-359.473,0
3805,4803,-343.667,0
3806,4835,-330.619,0
3807,4865,-319.505,0
3808,4880,-309.511,0
3809,4877,-300.155,0
3810,4865,-291.309,0
3811,4853,-282.934,0
3812,4868,-274.683,0
3813,4896,-265.648,0
3814,4942,-254.457,0
3815,4974,-239.802,0
3816,4994,-221.161,0
3817,4989,-199.299,0
3818,4971,-176.181,0
3819,4940,-154.312,0
3820,4931,-135.860,0
3821,4950,-121.920,0
3822,4991,-112.135,0
3823,5039,-104.830,0
3824,5087,-97.668,0
3825,5105,-88.474,0
3826,5104,-75.893,0
3827,5098,-59.655,0
3828,5097,-40.345,0
3829,5120,-18.852,0
3830,5156,4.136,0
3831,5202,28.278,0
3832,5263,53.401,0
3833,5302,79.318,0
3834,5325,105.813,0
3835,5332,132.720,0
3836,5337,159.989,0
3837,5358,187.748,0
3838,5396,216.289,0
3839,5440,245.932,0
3840,5490,276.732,0
3841,5528,308.226,0
3842,5545,339.438,0
3843,5546,369.164,0
3844,5546,396.386,0
3845,5564,420.690,0
3846,5593,442.519,0
3847,5647,463.078,0
3848,5706,483.893,0
3849,5749,506.248,0
3850,5765,530.692,0
3851,5760,556.762,0
3852,5755,583.114,0
3853,5759,608.122,0
3854,5781,630.647,0
3855,5803,650.463,0
3856,5830,668.017,0
3857,5852,683.761,0
3858,5862,697.612,0
3859,5850,708.931,0
3860,5826,716.891,0
3861,5807,720.952,0
3862,5818,721.238,0
3863,5845,718.767,0
3864,5876,715.334,0
3865,5896,712.887,0
3866,5903,712.664,0
3867,5885,714.621,0
3868,5844,717.478,0
3869,5777,719.177,0
3870,5715,717.362,0
3871,5662,709.739,0
3872,5608,694.321,0
3873,5558,669.558,0
3874,5508,634.366,0
3875,5435,588.285,0
3876,5356,531.730,0
3877,5262,466.145,0
3878,5190,393.926,0
3879,5134,318.163,0
3880,5101,242.229,0
3881,5084,169.274,0
3882,5061,101.712,0
3883,5020,40.866,0
3884,4960,-13.174,0
3885,4887,-61.401,0
3886,4821,-105.465,0
3887,4788,-147.049,0
3888,4777,-187.229,0
3889,4778,-226.084,0
3890,4779,-262.850,0
3891,4761,-296.507,0
3892,4717,-326.442,0
3893,4666,-352.829,0
3894,4633,-376.515,0
3895,4623,-398.383,0
3896,4640,-418.589,0
3897,4663,-436.249,0
3898,4694,-449.839,0
3899,4721,-457.972,0
3900,4723,-460.001,0
3901,4713,-456.199,0
3902,4684,-447.608,0
3903,4656,-435.771,0
3904,4651,-422.465,0
3905,4661,-409.443,0
3906,4681,-398.144,0
3907,4717,-389.483,0
3908,4727,-383.663,0
3909,4707,-380.160,0
3910,4674,-378.036,0
3911,4651,-376.412,0
3912,4661,-374.653,0
3913,4698,-372.132,0
3914,4735,-367.946,0
3915,4765,-361.047,0
3916,4773,-350.798,0
3917,4763,-337.484,0
3918,4746,-322.322,0
3919,4732,-306.942,0
3920,4734,-292.655,0
3921,4753,-279.945,0
3922,4781,-268.456,0
3923,4796,-257.439,0
3924,4805,-246.419,0
3925,4808,-235.602,0
3926,4801,-225.672,0
3927,4789,-217.172,0
3928,4791,-209.988,0
3929,4810,-203.251,0
3930,4850,-195.603,0
3931,4887,-185.656,0
3932,4901,-172.537,0
3933,4901,-156.381,0
3934,4886,-138.458,0
3935,4873,-120.716,0
3936,4855,-104.959,0
3937,4859,-92.190,0
3938,4872,-82.458,0
3939,4903,-75.117,0
3940,4931,-69.244,0
3941,4944,-63.969,0
3942,4942,-58.653,0
3943,4931,-52.912,0
3944,4924,-46.489,0
3945,4934,-39.061,0
3946,4964,-30.138,0
3947,5009,-19.097,0
3948,5061,-5.360,0
3949,5105,11.430,0
3950,5129,31.336,0
3951,5113,54.090,0
3952,5079,78.932,0
3953,5056,104.384,0
3954,5058,128.351,0
3955,5085,148.709,0
3956,5124,164.054,0
3957,5159,174.175,0
3958,5183,180.064,0
3959,5183,183.555,0
3960,5182,186.811,0
3961,5179,191.833,0
3962,5197,200.116,0
3963,5231,212.462,0
3964,5280,228.940,0
3965,5321,248.976,0
3966,5334,271.471,0
3967,5321,294.886,0
3968,5307,317.363,0
3969,5291,337.100,0
3970,5289,352.894,0
3971,5307,364.479,0
3972,5342,372.472,0
3973,5389,378.075,0
3974,5428,382.764,0
3975,5444,388.035,0
3976,5437,395.156,0
3977,5420,404.883,0
3978,5395,417.218,0
3979,5398,431.324,0
3980,5396,445.656,0
3981,5412,458.267,0
3982,5428,467.208,0
3983,5432,471.036,0
3984,5417,469.303,0
3985,5408,462.740,0
3986,5399,453.130,0
3987,5422,442.960,0
3988,5455,434.946,0
3989,5495,431.462,0
3990,5530,433.946,0
3991,5547,442.514,0
3992,5544,455.972,0
3993,5527,472.230,0
3994,5506,488.922,0
3995,5510,504.002,0
3996,5533,516.210,0
3997,5595,525.354,0
3998,5645,532.359,0
3999,5657,538.902,0
4000,5634,546.508,0
4001,5597,555.535,0
4002,5567,564.857,0
4003,5545,572.490,0
4004,5550,576.613,0
4005,5580,576.336,0
4006,5626,572.004,0
4007,5665,565.097,0
4008,5686,557.817,0
4009,5694,552.496,0
4010,5677,551.048,0
4011,5666,554.542,0
4012,5663,562.946,0
4013,5660,575.089,0
4014,5677,588.814,0
4015,5704,601.398,0
4016,5717,610.324,0
4017,5716,614.111,0
4018,5712,612.747,0
4019,5703,607.637,0
4020,5729,601.192,0
4021,5767,596.250,0
4022,5819,595.486,0
4023,5880,600.826,0
4024,5937,613.099,0
4025,5960,632.058,0
4026,5959,656.609,0
4027,5938,684.951,0
4028,5928,714.702,0
4029,5923,743.164,0
4030,5938,767.725,0
4031,5964,786.253,0
4032,5978,797.443,0
4033,5982,801.014,0
4034,5994,797.759,0
4035,6007,789.599,0
4036,6021,779.573,0
4037,6054,771.406,0
4038,6116,768.679,0
4039,6205,774.082,0
4040,6272,789.099,0
4041,6298,813.864,0
4042,6280,846.859,0
4043,6242,884.697,0
4044,6188,922.441,0
4045,6151,954.563,0
4046,6138,976.171,0
4047,6155,984.124,0
4048,6167,977.729,0
4049,6160,958.694,0
4050,6130,930.338,0
4051,6082,896.455,0
4052,6036,860.400,0
4053,5994,824.654,0
4054,5985,790.762,0
4055,5981,759.468,0
4056,5978,730.845,0
4057,5957,704.308,0
4058,5921,678.610,0
4059,5855,652.058,0
4060,5800,622.952,0
4061,5733,590.101,0
4062,5699,553.168,0
4063,5700,512.731,0
4064,5730,470.235,0
4065,5755,427.922,0
4066,5768,388.534,0
4067,5768,354.737,0
4068,5755,328.586,0
4069,5728,311.189,0
4070,5713,302.506,0
4071,5722,301.274,0
4072,5743,305.231,0
4073,5759,311.625,0
4074,5773,317.752,0
4075,5763,321.421,0
4076,5749,321.361,0
4077,5727,317.447,0
4078,5722,310.658,0
4079,5737,302.741,0
4080,5766,295.694,0
4081,5789,291.172,0
4082,5809,289.959,0
4083,5808,291.738,0
4084,5786,295.315,0
4085,5748,299.107,0
4086,5716,301.578,0
4087,5701,301.526,0
4088,5705,298.244,0
4089,5718,291.539,0
4090,5731,281.639,0
4091,5755,269.104,0
4092,5786,254.994,0
4093,5826,241.296,0
4094,5898,231.245,0
4095,6019,229.272,0
4096,6171,240.584,0
4097,6328,270.344,0
4098,6486,322.454,0
4099,6637,398.373,0
4100,6800,496.707,0
4101,7013,614.073,0
4102,7323,747.138,0
4103,7758,895.291,0
4104,8286,1062.873,0
4105,8813,1259.500,0
4106,9270,1497.396,0
4107,9545,1785.946,0
4108,9562,2125.160,0
4109,9266,2500.129,0
4110,8624,2878.196,0
4111,7744,3209.956,0
4112,6834,3435.069,0
4113,6065,3493.598,0
4114,5511,3341.404,0
4115,5203,2964.869,0
4116,5109,2389.162,0
4117,5169,1676.597,0
4118,5312,915.237,0
4119,5467,200.937,0
4120,5609,-382.293,0
4121,5712,-778.476,0
4122,5770,-968.530,0
4123,5781,-970.224,0
4124,5761,-830.157,0
4125,5705,-610.504,0
4126,5630,-374.322,0
4127,5560,-173.099,0
4128,5512,-39.040,0
4129,5511,17.088,0
4130,5545,3.216,0
4131,5587,-60.099,0
4132,5625,-147.148,0
4133,5636,-233.992,0
4134,5615,-303.272,0
4135,5571,-346.269,0
4136,5539,-362.429,0
4137,5543,-357.039,0
4138,5568,-338.057,0
4139,5603,-313.285,0
4140,5633,-288.772,0
4141,5637,-268.449,0
4142,5621,-254.447,0
4143,5591,-247.497,0
4144,5575,-247.124,0
4145,5593,-251.612,0
4146,5633,-258.028,0
4147,5691,-262.632,0
4148,5726,-261.879,0
4149,5740,-253.691,0
4150,5726,-238.375,0
4151,5694,-218.577,0
4152,5660,-198.249,0
4153,5659,-181.132,0
4154,5685,-169.380,0
4155,5717,-162.918,0
4156,5752,-159.883,0
4157,5766,-157.893,0
4158,5765,-155.310,0
4159,5737,-151.800,0
4160,5710,-148.090,0
4161,5694,-145.209,0
4162,5711,-143.684,0
4163,5743,-143.070,0
4164,5795,-142.072,0
4165,5848,-139.100,0
4166,5865,-132.899,0
4167,5853,-123.023,0
4168,5824,-110.077,0
4169,5800,-95.541,0
4170,5796,-81.184,0
4171,5819,-68.389,0
4172,5865,-57.739,0
4173,5901,-49.025,0
4174,5940,-41.581,0
4175,5974,-34.594,0
4176,5979,-27.095,0
4177,5975,-17.852,0
4178,5966,-5.606,0
4179,5969,10.374,0
4180,5988,29.763,0
4181,6027,51.033,0
4182,6053,71.858,0
4183,6056,89.854,0
4184,6050,103.241,0
4185,6031,111.297,0
4186,6017,114.555,0
4187,6033,114.638,0
4188,6070,113.805,0
4189,6106,114.353,0
4190,6132,117.925,0
4191,6134,124.893,0
4192,6118,134.205,0
4193,6087,143.838,0
4194,6067,151.661,0
4195,6067,156.283,0
4196,6106,157.582,0
4197,6176,156.802,0
4198,6239,156.263,0
4199,6269,158.644,0
4200,6271,165.959,0
4201,6265,178.740,0
4202,6266,196.046,0
4203,6284,216.251,0
4204,6321,237.977,0
4205,6359,260.505,0
4206,6405,283.508,0
4207,6433,306.505,0
4208,6423,328.519,0
4209,6410,348.095,0
4210,6399,363.721,0
4211,6417,374.606,0
4212,6454,381.390,0
4213,6511,386.247,0
4214,6561,392.156,0
4215,6599,401.705,0
4216,6598,415.994,0
4217,6567,434.143,0
4218,6527,453.520,0
4219,6496,470.645,0
4220,6474,482.370,0
4221,6483,486.779,0
4222,6523,483.511,0
4223,6556,473.695,0
4224,6580,459.585,0
4225,6571,443.933,0
4226,6526,429.232,0
4227,6470,417.002,0
4228,6426,407.334,0
4229,6410,398.966,0
4230,6407,389.863,0
4231,6405,377.925,0
4232,6382,361.448,0
4233,6318,339.234,0
4234,6225,310.454,0
4235,6125,274.469,0
4236,6055,230.907,0
4237,6008,180.064,0
4238,5968,123.233,0
4239,5929,62.451,0
4240,5877,-0.298,0
4241,5799,-63.846,0
4242,5695,-128.103,0
4243,5578,-193.813,0
4244,5460,-262.036,0
4245,5372,-333.642,0
4246,5315,-408.916,0
4247,5287,-487.326,0
4248,5259,-567.456,0
4249,5218,-647.227,0
4250,5157,-724.326,0
4251,5091,-796.647,0
4252,5044,-862.491,0
4253,5013,-920.477,0
4254,5003,-969.448,0
4255,5010,-1008.661,0
4256,5025,-1038.166,0
4257,5024,-1058.999,0
4258,5011,-1073.005,0
4259,4980,-1082.355,0
4260,4944,-1088.940,0
4261,4916,-1093.968,0
4262,4920,-1097.884,0
4263,4948,-1100.540,0
4264,4983,-1101.429,0
4265,5000,-1100.009,0
4266,5011,-1096.048,0
4267,5008,-1089.735,0
4268,4981,-1081.428,0
4269,4958,-1071.387,0
4270,4954,-1059.787,0
4271,4974,-1046.873,0
4272,4999,-1033.050,0
4273,5029,-1018.915,0
4274,5044,-1005.212,0
4275,5039,-992.619,0
4276,5023,-981.459,0
4277,5003,-971.519,0
4278,4993,-962.089,0
4279,5011,-952.249,0
4280,5058,-941.201,0
4281,5097,-928.409,0
4282,5127,-913.645,0
4283,5128,-897.054,0
4284,5108,-879.164,0
4285,5085,-860.767,0
4286,5079,-842.666,0
4287,5096,-825.361,0
4288,5136,-808.849,0
4289,5183,-792.679,0
4290,5225,-776.202,0
4291,5238,-758.865,0
4292,5220,-740.444,0
4293,5191,-721.203,0
4294,5166,-701.875,0
4295,5151,-683.451,0
4296,5151,-666.963,0
4297,5175,-653.387,0
4298,5211,-643.500,0
4299,5232,-637.543,0
4300,5224,-634.924,0
4301,5203,-634.293,0
4302,5168,-633.980,0
4303,5147,-632.544,0
4304,5158,-629.190,0
4305,5213,-623.805,0
4306,5265,-616.524,0
4307,5305,-607.273,0
4308,5311,-595.724,0
4309,5285,-581.640,0
4310,5249,-565.303,0
4311,5232,-547.659,0
4312,5241,-530.053,0
4313,5272,-513.692,0
4314,5304,-499.275,0
4315,5318,-487.023,0
4316,5303,-477.026,0
4317,5281,-469.552,0
4318,5252,-464.962,0
4319,5238,-463.255,0
4320,5235,-463.691,0
4321,5267,-464.836,0
4322,5320,-464.960,0
4323,5356,-462.463,0
4324,5373,-456.270,0
4325,5367,-446.164,0
4326,5334,-432.834,0
4327,5305,-417.627,0
4328,5300,-402.128,0
4329,5321,-387.672,0
4330,5371,-374.933,0
4331,5421,-363.763,0
4332,5449,-353.366,0
4333,5452,-342.736,0
4334,5439,-331.123,0
4335,5413,-318.239,0
4336,5393,-304.217,0
4337,5393,-289.538,0
4338,5407,-275.001,0
4339,5431,-261.668,0
4340,5448,-250.727,0
4341,5454,-243.201,0
4342,5442,-239.557,0
4343,5412,-239.403,0
4344,5401,-241.501,0
4345,5429,-244.029,0
4346,5475,-244.829,0
4347,5520,-241.735,0
4348,5553,-233.192,0
4349,5553,-218.963,0
4350,5527,-200.445,0
4351,5491,-180.357,0
4352,5453,-161.887,0
4353,5432,-147.720,0
4354,5436,-139.403,0
4355,5463,-137.181,0
4356,5495,-140.187,0
4357,5518,-146.783,0
4358,5511,-154.965,0
4359,5485,-162.785,0
4360,5448,-168.742,0
4361,5425,-172.035,0
4362,5425,-172.610,0
4363,5449,-171.004,0
4364,5495,-168.045,0
4365,5534,-164.461,0
4366,5538,-160.570,0
4367,5530,-156.263,0
4368,5503,-151.220,0
4369,5481,-145.120,0
4370,5485,-137.792,0
4371,5504,-129.287,0
4372,5532,-119.918,0
4373,5558,-110.301,0
4374,5565,-101.316,0
4375,5555,-93.884,0
4376,5538,-88.604,0
4377,5533,-85.391,0
4378,5549,-83.264,0
4379,5585,-80.462,0
4380,5622,-74.973,0
4381,5655,-65.347,0
4382,5692,-51.344,0
4383,5705,-33.913,0
4384,5692,-14.568,0
4385,5669,5.234,0
4386,5663,24.367,0
4387,5665,42.058,0
4388,5677,57.781,0
4389,5704,71.013,0
4390,5723,81.124,0
4391,5733,87.582,0
4392,5737,90.368,0
4393,5726,90.351,0
4394,5726,89.311,0
4395,5764,89.564,0
4396,5826,93.497,0
4397,5880,103.160,0
4398,5927,119.761,0
4399,5933,143.118,0
4400,5923,171.417,0
4401,5915,201.609,0
4402,5913,230.423,0
4403,5917,255.506,0
4404,5944,275.963,0
4405,5972,292.113,0
4406,5983,304.786,0
4407,5984,314.555,0
4408,5950,321.295,0
4409,5903,324.250,0
4410,5845,322.416,0
4411,5820,315.019,0
4412,5815,301.954,0
4413,5817,284.027,0
4414,5806,262.695,0
4415,5770,239.309,0
4416,5727,214.386,0
4417,5667,187.496,0
4418,5591,157.794,0
4419,5530,124.649,0
4420,5498,87.984,0
4421,5487,48.393,0
4422,5496,7.102,0
4423,5508,-34.212,0
4424,5497,-73.673,0
4425,5469,-109.501,0
4426,5427,-140.341,0
4427,5394,-165.485,0
4428,5379,-184.900,0
4429,5381,-199.103,0
4430,5389,-209.043,0
4431,5401,-216.044,0
4432,5396,-221.692,0
4433,5371,-227.553,0
4434,5336,-234.825,0
4435,5303,-244.056,0
4436,5297,-254.987,0
4437,5311,-266.563,0
4438,5336,-277.183,0
4439,5362,-285.232,0
4440,5370,-289.689,0
4441,5353,-290.520,0
4442,5322,-288.676,0
4443,5270,-285.753,0
4444,5232,-283.526,0
4445,5235,-283.525,0
4446,5272,-286.552,0
4447,5319,-292.220,0
4448,5348,-298.929,0
4449,5348,-304.502,0
4450,5319,-307.145,0
4451,5278,-306.182,0
4452,5247,-302.210,0
4453,5255,-296.628,0
4454,5304,-290.778,0
4455,5405,-285.019,0
4456,5543,-277.989,0
4457,5674,-266.312,0
4458,5773,-245.038,0
4459,5840,-209.012,0
4460,5916,-154.629,0
4461,6024,-80.981,0
4462,6180,10.273,0
4463,6409,116.130,0
4464,6758,234.147,0
4465,7185,364.698,0
4466,7623,512.760,0
4467,7995,687.640,0
4468,8219,899.631,0
4469,8231,1154.111,0
4470,8003,1445.006,0
4471,7549,1750.133,0
4472,6901,2030.734,0
4473,6187,2236.347,0
4474,5513,2314.746,0
4475,5002,2225.047,0
4476,4681,1950.448,0
4477,4535,1506.193,0
4478,4546,939.368,0
4479,4671,320.103,0
4480,4833,-273.043,0
4481,4992,-769.225,0
4482,5106,-1118.820,0
4483,5160,-1301.166,0
4484,5161,-1325.295,0
4485,5132,-1224.339,0
4486,5104,-1045.697,0
4487,5076,-839.739,0
4488,5053,-649.891,0
4489,5038,-506.137,0
4490,5018,-422.650,0
4491,4993,-399.044,0
4492,4959,-424.139,0
4493,4916,-480.897,0
4494,4900,-551.274,0
4495,4913,-619.847,0
4496,4927,-675.717,0
4497,4971,-712.947,0
4498,5013,-730.007,0
4499,5036,-728.577,0
4500,5036,-712.249,0
4501,5011,-685.593,0
4502,4991,-653.576,0
4503,4986,-621.034,0
4504,5009,-591.989,0
4505,5025,-568.960,0
4506,5036,-552.714,0
4507,5035,-542.653,0
4508,5034,-537.443,0
4509,5021,-535.461,0
4510,5010,-534.981,0
4511,5018,-534.335,0
4512,5038,-532.062,0
4513,5089,-526.976,0
4514,5147,-518.109,0
4515,5166,-504.652,0
4516,5158,-486.236,0
4517,5140,-463.494,0
4518,5125,-438.271,0
4519,5116,-413.111,0
4520,5124,-390.401,0
4521,5146,-371.705,0
4522,5181,-357.486,0
4523,5211,-347.146,0
4524,5213,-339.313,0
4525,5195,-332.392,0
4526,5175,-325.196,0
4527,5165,-317.274,0
4528,5172,-308.749,0
4529,5197,-299.911,0
4530,5236,-290.872,0
4531,5274,-281.415,0
4532,5291,-271.041,0
4533,5282,-259.227,0
4534,5256,-245.831,0
4535,5231,-231.383,0
4536,5232,-217.017,0
4537,5264,-203.957,0
4538,5314,-192.801,0
4539,5351,-183.098,0
4540,5355,-173.605,0
4541,5344,-163.155,0
4542,5319,-151.452,0
4543,5300,-139.203,0
4544,5290,-127.637,0
4545,5309,-117.821,0
4546,5342,-110.158,0
4547,5389,-104.196,0
4548,5419,-98.774,0
4549,5425,-92.445,0
4550,5402,-84.092,0
4551,5377,-73.449,0
4552,5366,-61.219,0
4553,5371,-48.672,0
4554,5406,-36.999,0
4555,5448,-26.789,0
4556,5489,-17.824,0
4557,5521,-9.210,0
4558,5525,0.283,0
4559,5507,11.788,0
4560,5491,25.851,0
4561,5495,42.167,0
4562,5521,59.745,0
4563,5564,77.417,0
4564,5609,94.327,0
4565,5648,110.204,0
4566,5658,125.365,0
4567,5656,140.477,0
4568,5658,156.232,0
4569,5668,173.139,0
4570,5697,191.503,0
4571,5744,211.431,0
4572,5798,232.851,0
4573,5838,255.552,0
4574,5857,279.210,0
4575,5855,303.354,0
4576,5828,327.307,0
4577,5812,350.131,0
4578,5818,370.671,0
4579,5852,387.869,0
4580,5903,401.242,0
4581,5943,411.204,0
4582,5940,418.911,0
4583,5909,425.578,0
4584,5865,431.654,0
4585,5832,436.534,0
4586,5818,438.976,0
4587,5843,437.906,0
4588,5903,433.173,0
4589,5965,426.015,0
4590,5989,418.933,0
4591,5982,414.795,0
4592,5946,415.561,0
4593,5878,421.345,0
4594,5808,430.114,0
4595,5749,438.001,0
4596,5714,440.152,0
4597,5695,432.003,0
4598,5658,410.550,0
4599,5583,375.026,0
4600,5485,326.663,0
4601,5370,267.822,0
4602,5263,201.125,0
4603,5182,128.917,0
4604,5121,53.108,0
4605,5086,-24.743,0
4606,5050,-103.245,0
4607,5006,-181.003,0
4608,4959,-256.491,0
4609,4901,-327.979,0
4610,4847,-393.580,0
4611,4814,-451.509,0
4612,4784,-500.522,0
4613,4777,-540.371,0
4614,4768,-572.045,0
4615,4747,-597.593,0
4616,4711,-619.576,0
4617,4666,-640.379,0
4618,4621,-661.597,0
4619,4591,-683.695,0
4620,4582,-706.072,0
4621,4590,-727.468,0
4622,4620,-746.492,0
4623,4636,-761.992,0
4624,4623,-773.241,0
4625,4578,-780.110,0
4626,4525,-783.289,0
4627,4484,-784.252,0
4628,4483,-784.816,0
4629,4490,-786.414,0
4630,4501,-789.627,0
4631,4514,-794.299,0
4632,4511,-799.939,0
4633,4501,-805.963,0
4634,4484,-811.638,0
4635,4465,-815.968,0
4636,4449,-817.791,0
4637,4455,-816.203,0
4638,4478,-811.006,0
4639,4509,-802.810,0
4640,4530,-792.696,0
4641,4526,-781.739,0
4642,4501,-770.685,0
4643,4457,-759.957,0
4644,4426,-749.902,0
4645,4427,-741.002,0
4646,4451,-733.769,0
4647,4485,-728.410,0
4648,4520,-724.561,0
4649,4536,-721.273,0
4650,4523,-717.197,0
4651,4495,-710.998,0
4652,4481,-701.835,0
4653,4496,-689.561,0
4654,4527,-674.525,0
4655,4573,-657.235,0
4656,4604,-638.198,0
4657,4603,-618.003,0
4658,4575,-597.554,0
4659,4534,-578.200,0
4660,4509,-561.519,0
4661,4509,-548.742,0
4662,4531,-540.142,0
4663,4581,-534.800,0
4664,4627,-530.850,0
4665,4649,-526.048,0
4666,4643,-518.501,0
4667,4620,-507.282,0
4668,4591,-492.629,0
4669,4577,-475.690,0
4670,4591,-458.006,0
4671,4634,-440.944,0
4672,4689,-425.234,0
4673,4724,-410.751,0
4674,4725,-396.737,0
4675,4708,-382.359,0
4676,4690,-367.202,0
4677,4691,-351.287,0
4678,4701,-334.747,0
4679,4723,-317.604,0
4680,4750,-299.947,0
4681,4771,-282.246,0
4682,4770,-265.452,0
4683,4755,-250.750,0
4684,4733,-239.116,0
4685,4720,-230.847,0
4686,4725,-225.325,0
4687,4752,-221.140,0
4688,4793,-216.540,0
4689,4832,-209.978,0
4690,4847,-200.554,0
4691,4838,-188.228,0
4692,4806,-173.808,0
4693,4785,-158.670,0
4694,4784,-144.247,0
4695,4804,-131.461,0
4696,4832,-120.433,0
4697,4857,-110.712,0
4698,4884,-101.775,0
4699,4889,-93.329,0
4700,4870,-85.246,0
4701,4838,-77.426,0
4702,4817,-69.813,0
4703,4820,-62.459,0
4704,4845,-55.481,0
4705,4881,-48.952,0
4706,4912,-42.821,0
4707,4921,-36.924,0
4708,4908,-31.040,0
4709,4889,-24.960,0
4710,4868,-18.498,0
4711,4865,-11.478,0
4712,4889,-3.779,0
4713,4934,4.640,0
4714,4978,13.821,0
4715,4999,23.876,0
4716,5004,34.935,0
4717,4980,47.020,0
4718,4944,59.929,0
4719,4922,73.101,0
4720,4920,85.575,0
4721,4950,96.197,0
4722,4985,104.030,0
4723,5006,108.737,0
4724,5016,110.705,0
4725,5004,110.913,0
4726,4985,110.713,0
4727,4974,111.537,0
4728,4983,114.566,0
4729,5012,120.479,0
4730,5065,129.363,0
4731,5090,140.824,0
4732,5088,154.095,0
4733,5057,167.994,0
4734,5026,180.939,0
4735,5017,191.356,0
4736,5029,198.382,0
4737,5054,202.367,0
4738,5089,204.707,0
4739,5126,207.111,0
4740,5131,210.873,0
4741,5113,216.436,0
4742,5087,223.324,0
4743,5065,230.482,0
4744,5070,236.905,0
4745,5090,242.198,0
4746,5121,246.715,0
4747,5153,251.201,0
4748,5170,256.253,0
4749,5167,261.991,0
4750,5146,268.069,0
4751,5130,273.959,0
4752,5130,279.340,0
4753,5144,284.387,0
4754,5171,289.730,0
4755,5201,296.036,0
4756,5219,303.529,0
4757,5216,311.758,0
4758,5191,319.713,0
4759,5163,326.195,0
4760,5153,330.305,0
4761,5164,331.886,0
4762,5191,331.697,0
4763,5231,331.146,0
4764,5256,331.690,0
4765,5259,334.245,0
4766,5242,338.824,0
4767,5203,344.577,0
4768,5180,350.160,0
4769,5179,354.312,0
4770,5197,356.388,0
4771,5226,356.586,0
4772,5260,355.691,0
4773,5280,354.636,0
4774,5287,354.196,0
4775,5286,354.961,0
4776,5277,357.488,0
4777,5268,362.371,0
4778,5277,370.022,0
4779,5316,380.354,0
4780,5379,392.771,0
4781,5431,406.598,0
4782,5462,421.540,0
4783,5473,437.789,0
4784,5459,455.763,0
4785,5432,475.657,0
4786,5417,496.946,0
4787,5423,518.127,0
4788,5445,536.959,0
4789,5480,551.172,0
4790,5509,559.327,0
4791,5536,561.511,0
4792,5551,559.586,0
4793,5556,556.839,0
4794,5580,557.053,0
4795,5634,563.415,0
4796,5695,577.813,0
4797,5748,600.595,0
4798,5779,630.568,0
4799,5776,665.161,0
4800,5739,700.811,0
4801,5690,733.510,0
4802,5661,759.446,0
4803,5643,775.732,0
4804,5635,780.936,0
4805,5636,775.112,0
4806,5619,759.400,0
4807,5584,735.491,0
4808,5554,705.252,0
4809,5521,670.701,0
4810,5499,634.231,0
4811,5500,598.639,0
4812,5511,566.750,0
4813,5517,540.754,0
4814,5526,521.520,0
4815,5521,508.304,0
4816,5482,499.105,0
4817,5418,491.313,0
4818,5351,482.219,0
4819,5309,469.384,0
4820,5301,451.077,0
4821,5312,426.777,0
4822,5333,397.409,0
4823,5355,365.159,0
4824,5361,333.001,0
4825,5349,304.140,0
4826,5328,281.389,0
4827,5304,266.557,0
4828,5297,259.965,0
4829,5311,260.331,0
4830,5349,265.178,0
4831,5381,271.710,0
4832,5390,277.729,0
4833,5376,282.101,0
4834,5352,284.663,0
4835,5322,285.838,0
4836,5313,286.199,0
4837,5325,286.128,0
4838,5347,285.710,0
4839,5369,284.781,0
4840,5380,283.072,0
4841,5373,280.388,0
4842,5357,276.819,0
4843,5350,272.874,0
4844,5369,269.536,0
4845,5406,268.216,0
4846,5444,270.483,0
4847,5477,277.491,0
4848,5468,289.287,0
4849,5439,304.375,0
4850,5425,319.888,0
4851,5443,332.687,0
4852,5518,341.114,0
4853,5644,346.515,0
4854,5794,353.628,0
4855,5944,369.500,0
4856,6072,401.281,0
4857,6199,453.944,0
4858,6336,529.082,0
4859,6532,625.400,0
4860,6839,740.710,0
4861,7264,874.675,0
4862,7744,1031.030,0
4863,8185,1217.639,0
4864,8507,1443.435,0
4865,8634,1712.948,0
4866,8509,2020.508,0
4867,8114,2346.239,0
4868,7486,2655.254,0
4869,6760,2900.852,0
4870,6081,3032.133,0
4871,5534,3005.337,0
4872,5182,2796.196,0
4873,5012,2409.221,0
4874,5002,1880.454,0
4875,5085,1272.329,0
4876,5203,661.698,0
4877,5319,124.089,0
4878,5415,-281.628,0
4879,5471,-524.094,0
4880,5499,-603.286,0
4881,5492,-546.906,0
4882,5452,-400.992,0
4883,5401,-217.791,0
4884,5347,-44.216,0
4885,5304,86.470,0
4886,5275,158.277,0
4887,5282,171.428,0
4888,5312,138.000,0
4889,5342,76.238,0
4890,5346,5.119,0
4891,5327,-59.846,0
4892,5303,-108.950,0
4893,5289,-138.533,0
4894,5289,-149.609,0
4895,5310,-145.874,0
4896,5352,-131.996,0
4897,5395,-112.479,0
4898,5408,-91.101,0
4899,5399,-70.806,0
4900,5375,-53.810,0
4901,5355,-41.534,0
4902,5356,-34.313,0
4903,5385,-31.154,0
4904,5425,-29.880,0
4905,5476,-27.786,0
4906,5511,-22.555,0
4907,5518,-13.001,0
4908,5495,0.613,0
4909,5457,16.713,0
4910,5441,32.969,0
4911,5448,47.149,0
4912,5475,57.943,0
4913,5518,65.285,0
4914,5550,70.075,0
4915,5557,73.551,0
4916,5541,76.662,0
4917,5518,79.748,0
4918,5500,82.701,0
4919,5504,85.410,0
4920,5533,88.141,0
4921,5569,91.581,0
4922,5606,96.513,0
4923,5629,103.342,0
4924,5621,111.831,0
4925,5601,121.148,0
4926,5568,130.172,0
4927,5550,137.866,0
4928,5549,143.540,0
4929,5562,146.903,0
4930,5598,147.941,0
4931,5632,146.845,0
4932,5659,144.139,0
4933,5670,140.891,0
4934,5670,138.753,0
4935,5669,139.694,0
4936,5688,145.459,0
4937,5721,157.011,0
4938,5762,174.200,0
4939,5795,195.716,0
4940,5805,219.325,0
4941,5808,242.368,0
4942,5795,262.470,0
4943,5789,278.242,0
4944,5798,289.644,0
4945,5848,297.887,0
4946,5924,305.089,0
4947,5998,313.858,0
4948,6032,326.690,0
4949,6039,345.123,0
4950,6041,369.071,0
4951,6031,396.921,0
4952,6051,426.343,0
4953,6083,455.243,0
4954,6135,482.363,0
4955,6197,507.348,0
4956,6245,530.462,0
4957,6286,552.264,0
4958,6292,573.416,0
4959,6300,594.579,0
4960,6324,616.370,0
4961,6363,639.411,0
4962,6397,664.301,0
4963,6444,691.248,0
4964,6488,719.618,0
4965,6495,747.893,0
4966,6489,774.022,0
4967,6482,795.983,0
4968,6484,812.467,0
4969,6516,823.491,0
4970,6557,830.571,0
4971,6621,836.250,0
4972,6666,843.212,0
4973,6689,853.343,0
4974,6687,867.096,0
4975,6671,883.415,0
4976,6631,900.222,0
4977,6627,915.119,0
4978,6652,926.092,0
4979,6701,932.188,0
4980,6750,933.850,0
4981,6779,932.634,0
4982,6782,930.454,0
4983,6769,928.796,0
4984,6747,928.358,0
4985,6743,929.146,0
4986,6755,930.836,0
4987,6778,933.075,0
4988,6795,935.476,0
4989,6794,937.321,0
4990,6767,937.292,0
4991,6711,933.497,0
4992,6635,923.827,0
4993,6564,906.448,0
4994,6502,880.214,0
4995,6448,844.828,0
4996,6396,800.655,0
4997,6341,748.287,0
4998,6275,688.235,0
4999,6205,621.010,0
5000,6122,547.543,0
5001,6032,469.555,0
5002,5962,389.469,0
5003,5909,309.903,0
5004,5875,233.091,0
5005,5848,160.459,0
5006,5806,92.489,0
5007,5739,28.810,0
5008,5669,-31.541,0
5009,5602,-89.686,0
5010,5556,-146.335,0
5011,5537,-201.332,0
5012,5540,-253.605,0
5013,5552,-301.526,0
5014,5546,-343.533,0
5015,5521,-378.773,0
5016,5474,-407.493,0
5017,5411,-431.009,0
5018,5353,-451.329,0
5019,5335,-470.604,0
5020,5344,-490.476,0
5021,5368,-511.509,0
5022,5389,-533.072,0
5023,5398,-553.736,0
5024,5386,-571.883,0
5025,5362,-586.170,0
5026,5346,-595.764,0
5027,5341,-600.345,0
5028,5344,-600.042,0
5029,5347,-595.539,0
5030,5361,-588.277,0
5031,5374,-580.372,0
5032,5372,-574.009,0
5033,5347,-570.651,0
5034,5321,-570.613,0
5035,5311,-573.151,0
5036,5322,-576.819,0
5037,5345,-579.896,0
5038,5373,-580.893,0
5039,5389,-579.007,0
5040,5381,-574.366,0
5041,5365,-567.929,0
5042,5343,-561.041,0
5043,5327,-554.831,0
5044,5334,-549.768,0
5045,5361,-545.570,0
5046,5403,-541.413,0
5047,5433,-536.279,0
5048,5445,-529.366,0
5049,5447,-520.391,0
5050,5428,-509.588,0
5051,5412,-497.481,0
5052,5413,-484.638,0
5053,5429,-471.528,0
5054,5451,-458.498,0
5055,5467,-445.935,0
5056,5467,-434.479,0
5057,5454,-425.077,0
5058,5429,-418.718,0
5059,5404,-415.976,0
5060,5399,-416.651,0
5061,5419,-419.661,0
5062,5451,-423.230,0
5063,5488,-425.359,0
5064,5518,-424.412,0
5065,5537,-419.522,0
5066,5513,-410.654,0
5067,5494,-398.508,0
5068,5485,-384.324,0
5069,5485,-369.505,0
5070,5499,-355.240,0
5071,5530,-342.406,0
5072,5557,-331.580,0
5073,5561,-323.033,0
5074,5530,-316.770,0
5075,5485,-312.774,0
5076,5423,-311.281,0
5077,5397,-312.884,0
5078,5400,-318.288,0
5079,5405,-327.802,0
5080,5421,-341.023,0
5081,5418,-356.952,0
5082,5391,-374.339,0
5083,5348,-392.035,0
5084,5280,-409.295,0
5085,5228,-426.001,0
5086,5188,-442.746,0
5087,5173,-460.665,0
5088,5188,-480.974,0
5089,5202,-504.322,0
5090,5196,-530.236,0
5091,5174,-557.068,0
5092,5150,-582.477,0
5093,5139,-604.045,0
5094,5154,-619.732,0
5095,5185,-628.120,0
5096,5221,-628.584,0
5097,5241,-621.495,0
5098,5239,-608.350,0
5099,5217,-591.655,0
5100,5173,-574.446,0
5101,5141,-559.630,0
5102,5150,-549.288,0
5103,5181,-544.048,0
5104,5229,-542.799,0
5105,5256,-543.114,0
5106,5274,-542.301,0
5107,5282,-538.429,0
5108,5267,-530.722,0
5109,5241,-519.370,0
5110,5220,-505.243,0
5111,5224,-489.705,0
5112,5239,-474.373,0
5113,5240,-460.866,0
5114,5237,-450.687,0
5115,5218,-445.171,0
5116,5195,-445.213,0
5117,5171,-450.813,0
5118,5163,-460.760,0
5119,5172,-472.723,0
5120,5206,-483.780,0
5121,5251,-491.140,0
5122,5289,-492.766,0
5123,5301,-487.746,0
5124,5304,-476.377,0
5125,5289,-459.944,0
5126,5269,-440.249,0
5127,5259,-419.207,0
5128,5269,-398.646,0
5129,5288,-380.185,0
5130,5297,-365.130,0
5131,5300,-354.427,0
5132,5291,-348.591,0
5133,5272,-347.505,0
5134,5253,-350.238,0
5135,5250,-355.101,0
5136,5270,-359.983,0
5137,5316,-362.780,0
5138,5367,-361.738,0
5139,5396,-355.690,0
5140,5408,-344.264,0
5141,5392,-328.025,0
5142,5368,-308.381,0
5143,5348,-287.293,0
5144,5346,-266.853,0
5145,5358,-248.895,0
5146,5372,-234.752,0
5147,5376,-225.233,0
5148,5373,-220.715,0
5149,5353,-221.143,0
5150,5315,-225.931,0
5151,5274,-234.004,0
5152,5268,-244.077,0
5153,5293,-254.853,0
5154,5340,-264.942,0
5155,5380,-272.766,0
5156,5413,-276.734,0
5157,5413,-275.631,0
5158,5391,-268.995,0
5159,5364,-257.352,0
5160,5337,-242.208,0
5161,5338,-225.767,0
5162,5365,-210.433,0
5163,5407,-198.142,0
5164,5436,-189.769,0
5165,5445,-184.935,0
5166,5434,-182.319,0
5167,5406,-180.238,0
5168,5394,-177.231,0
5169,5396,-172.423,0
5170,5414,-165.608,0
5171,5448,-157.165,0
5172,5482,-147.853,0
5173,5493,-138.489,0
5174,5485,-129.668,0
5175,5461,-121.665,0
5176,5429,-114.513,0
5177,5416,-108.188,0
5178,5421,-102.786,0
5179,5444,-98.563,0
5180,5467,-95.830,0
5181,5462,-94.840,0
5182,5435,-95.800,0
5183,5396,-98.967,0
5184,5370,-104.567,0
5185,5376,-112.439,0
5186,5404,-121.595,0
5187,5437,-130.143,0
5188,5468,-135.850,0
5189,5479,-137.077,0
5190,5461,-133.504,0
5191,5444,-126.267,0
5192,5416,-117.412,0
5193,5399,-109.001,0
5194,5418,-102.384,0
5195,5472,-97.812,0
5196,5532,-94.320,0
5197,5580,-89.988,0
5198,5597,-82.669,0
5199,5596,-70.863,0
5200,5615,-54.184,0
5201,5626,-33.090,0
5202,5654,-8.265,0
5203,5691,19.673,0
5204,5727,49.994,0
5205,5769,81.539,0
5206,5784,112.668,0
5207,5781,141.536,0
5208,5760,166.520,0
5209,5736,186.556,0
5210,5739,201.325,0
5211,5787,211.364,0
5212,5860,218.211,0
5213,5937,224.417,0
5214,6001,233.122,0
5215,6039,247.267,0
5216,6061,268.811,0
5217,6072,298.309,0
5218,6078,334.910,0
5219,6092,376.551,0
5220,6111,420.215,0
5221,6125,462.242,0
5222,6124,498.762,0
5223,6101,526.231,0
5224,6055,542.010,0
5225,5989,544.804,0
5226,5920,534.755,0
5227,5894,513.199,0
5228,5901,482.420,0
5229,5929,445.574,0
5230,5944,406.474,0
5231,5939,368.954,0
5232,5901,335.967,0
5233,5844,308.898,0
5234,5773,287.343,0
5235,5711,269.360,0
5236,5660,251.990,0
5237,5622,231.894,0
5238,5586,205.977,0
5239,5550,171.961,0
5240,5514,128.927,0
5241,5474,77.770,0
5242,5439,21.340,0
5243,5438,-35.922,0
5244,5470,-88.746,0
5245,5516,-131.941,0
5246,5559,-161.385,0
5247,5589,-175.006,0
5248,5591,-173.345,0
5249,5568,-159.418,0
5250,5532,-137.919,0
5251,5503,-114.101,0
5252,5498,-92.641,0
5253,5505,-76.789,0
5254,5540,-68.004,0
5255,5578,-66.031,0
5256,5605,-69.182,0
5257,5607,-74.803,0
5258,5594,-79.925,0
5259,5579,-81.990,0
5260,5580,-79.390,0
5261,5604,-71.668,0
5262,5638,-59.388,0
5263,5670,-43.850,0
5264,5702,-26.762,0
5265,5697,-9.842,0
5266,5679,5.536,0
5267,5673,18.546,0
5268,5684,29.094,0
5269,5723,37.996,0
5270,5794,46.934,0
5271,5898,58.191,0
5272,6018,74.423,0
5273,6143,98.590,0
5274,6244,133.865,0
5275,6313,183.164,0
5276,6387,248.228,0
5277,6492,328.772,0
5278,6657,422.533,0
5279,6890,526.452,0
5280,7232,638.662,0
5281,7656,760.707,0
5282,8115,899.132,0
5283,8553,1065.175,0
5284,8906,1271.769,0
5285,9109,1528.273,0
5286,9112,1834.395,0
5287,8848,2175.204,0
5288,8311,2518.855,0
5289,7569,2818.234,0
5290,6786,3017.380,0
5291,6094,3062.749,0
5292,5574,2917.226,0
5293,5294,2572.456,0
5294,5252,2054.966,0
5295,5363,1423.640,0
5296,5545,758.787,0
5297,5730,145.510,0
5298,5842,-343.977,0
5299,5888,-664.298,0
5300,5878,-803.751,0
5301,5840,-782.869,0
5302,5800,-645.972,0
5303,5761,-448.789,0
5304,5746,-245.703,0
5305,5741,-79.480,0
5306,5716,24.741,0
5307,5675,60.521,0
5308,5625,36.801,0
5309,5594,-28.014,0
5310,5603,-112.368,0
5311,5628,-196.608,0
5312,5668,-266.147,0
5313,5733,-312.756,0
5314,5768,-334.142,0
5315,5772,-332.432,0
5316,5753,-312.522,0
5317,5728,-280.748,0
5318,5715,-243.790,0
5319,5725,-207.735,0
5320,5762,-177.288,0
5321,5826,-155.132,0
5322,5871,-141.508,0
5323,5887,-134.314,0
5324,5873,-130.006,0
5325,5855,-124.966,0
5326,5854,-116.653,0
5327,5870,-104.066,0
5328,5908,-87.589,0
5329,5954,-68.526,0
5330,5990,-48.550,0
5331,6013,-29.163,0
5332,6018,-11.285,0
5333,6010,4.963,0
5334,5997,20.152,0
5335,6000,35.088,0
5336,6022,50.252,0
5337,6060,65.506,0
5338,6113,80.221,0
5339,6146,93.789,0
5340,6156,106.128,0
5341,6148,117.811,0
5342,6135,129.769,0
5343,6135,142.825,0
5344,6150,157.300,0
5345,6189,172.850,0
5346,6239,188.616,0
5347,6276,203.667,0
5348,6304,217.488,0
5349,6318,230.296,0
5350,6324,243.080,0
5351,6331,257.301,0
5352,6353,274.298,0
5353,6396,294.674,0
5354,6433,318.002,0
5355,6457,342.890,0
5356,6469,367.302,0
5357,6461,389.087,0
5358,6434,406.607,0
5359,6416,419.095,0
5360,6425,426.668,0
5361,6441,430.156,0
5362,6485,430.822,0
5363,6547,430.096,0
5364,6603,429.574,0
5365,6645,431.193,0
5366,6660,437.175,0
5367,6660,449.526,0
5368,6670,469.257,0
5369,6695,495.828,0
5370,6719,527.119,0
5371,6756,559.883,0
5372,6765,590.447,0
5373,6765,615.508,0
5374,6747,632.808,0
5375,6724,641.561,0
5376,6732,642.546,0
5377,6749,637.901,0
5378,6797,630.647,0
5379,6851,624.003,0
5380,6880,620.664,0
5381,6901,622.211,0
5382,6895,628.831,0
5383,6873,639.500,0
5384,6848,652.419,0
5385,6851,665.465,0
5386,6880,676.678,0
5387,6929,684.781,0
5388,6983,689.557,0
5389,7031,691.911,0
5390,7048,693.631,0
5391,7036,696.841,0
5392,7009,703.192,0
5393,7025,713.188,0
5394,7035,726.122,0
5395,7074,740.533,0
5396,7107,754.703,0
5397,7115,766.988,0
5398,7106,775.984,0
5399,7095,780.647,0
5400,7097,780.621,0
5401,7102,776.670,0
5402,7117,770.710,0
5403,7135,765.134,0
5404,7166,761.782,0
5405,7168,761.204,0
5406,7146,762.481,0
5407,7088,763.474,0
5408,7028,761.335,0
5409,6971,753.234,0
5410,6941,737.137,0
5411,6933,712.388,0
5412,6923,679.815,0
5413,6898,641.275,0
5414,6838,598.773,0
5415,6739,553.560,0
5416,6608,505.563,0
5417,6473,453.312,0
5418,6361,394.419,0
5419,6277,326.498,0
5420,6208,248.160,0
5421,6138,159.590,0
5422,6058,62.468,0
5423,5960,-40.545,0
5424,5847,-146.397,0
5425,5732,-252.136,0
5426,5643,-355.249,0
5427,5584,-453.796,0
5428,5533,-546.372,0
5429,5481,-632.184,0
5430,5433,-711.265,0
5431,5384,-784.455,0
5432,5332,-852.848,0
5433,5277,-916.997,0
5434,5227,-976.480,0
5435,5185,-1030.140,0
5436,5165,-1076.821,0
5437,5162,-1116.097,0
5438,5160,-1148.526,0
5439,5156,-1175.353,0
5440,5144,-1197.899,0
5441,5130,-1216.929,0
5442,5101,-1232.326,0
5443,5087,-1243.335,0
5444,5103,-1249.195,0
5445,5145,-1249.613,0
5446,5191,-1244.759,0
5447,5226,-1235.013,0
5448,5221,-1220.836,0
5449,5217,-1202.868,0
5450,5204,-1182.009,0
5451,5201,-1159.268,0
5452,5217,-1135.555,0
5453,5237,-1111.613,0
5454,5260,-1088.152,0
5455,5264,-1066.041,0
5456,5253,-1046.402,0
5457,5221,-1030.446,0
5458,5197,-1019.115,0
5459,5193,-1012.601,0
5460,5205,-1009.982,0
5461,5233,-1009.254,0
5462,5263,-1007.926,0
5463,5291,-1003.865,0
5464,5293,-995.957,0
5465,5268,-984.329,0
5466,5247,-970.184,0
5467,5228,-955.263,0
5468,5232,-941.112,0
5469,5250,-928.526,0
5470,5271,-917.484,0
5471,5292,-907.518,0
5472,5309,-898.189,0
5473,5305,-889.275,0
5474,5293,-880.636,0
5475,5288,-871.993,0
5476,5293,-862.777,0
5477,5300,-852.168,0
5478,5321,-839.464,0
5479,5348,-824.567,0
5480,5359,-808.166,0
5481,5349,-791.540,0
5482,5328,-776.187,0
5483,5316,-763.364,0
5484,5316,-753.583,0
5485,5344,-746.261,0
5486,5390,-739.755,0
5487,5433,-731.828,0
5488,5482,-720.376,0
5489,5513,-704.038,0
5490,5527,-682.410,0
5491,5517,-655.930,0
5492,5498,-625.741,0
5493,5498,-593.610,0
5494,5503,-561.751,0
5495,5535,-532.456,0
5496,5587,-507.559,0
5497,5629,-487.800,0
5498,5654,-472.407,0
5499,5667,-459.263,0
5500,5680,-445.576,0
5501,5697,-428.678,0
5502,5741,-406.679,0
5503,5798,-378.800,0
5504,5852,-345.369,0
5505,5897,-307.604,0
5506,5910,-267.357,0
5507,5891,-226.850,0
5508,5854,-188.502,0
5509,5825,-154.776,0
5510,5841,-127.822,0
5511,5885,-108.796,0
5512,5941,-97.200,0
5513,5985,-90.808,0
5514,6022,-86.356,0
5515,6041,-80.501,0
5516,6040,-70.571,0
5517,6026,-55.039,0
5518,6028,-33.822,0
5519,6038,-8.311,0
5520,6071,19.011,0
5521,6105,45.265,0
5522,6130,67.988,0
5523,6130,85.741,0
5524,6113,98.301,0
5525,6082,106.394,0
5526,6057,111.171,0
5527,6044,113.635,0
5528,6051,114.259,0
5529,6083,112.979,0
5530,6082,109.536,0
5531,6080,103.833,0
5532,6058,96.062,0
5533,6037,86.755,0
5534,6030,76.840,0
5535,6050,67.639,0
5536,6086,60.750,0
5537,6137,57.767,0
5538,6170,59.890,0
5539,6167,67.480,0
5540,6130,79.675,0
5541,6097,94.275,0
5542,6061,108.242,0
5543,6045,118.650,0
5544,6055,123.548,0
5545,6086,122.388,0
5546,6113,116.026,0
5547,6129,106.337,0
5548,6126,95.606,0
5549,6107,85.951,0
5550,6069,78.907,0
5551,6032,75.097,0
5552,6022,74.006,0
5553,6051,74.167,0
5554,6070,73.850,0
5555,6070,71.760,0
5556,6047,67.193,0
5557,6005,59.804,0
5558,5963,49.436,0
5559,5937,36.201,0
5560,5944,20.707,0
5561,5961,4.198,0
5562,5965,-11.677,0
5563,5943,-25.610,0
5564,5901,-37.510,0
5565,5844,-48.831,0
5566,5785,-62.018,0
5567,5719,-79.453,0
5568,5675,-102.592,0
5569,5666,-131.641,0
5570,5677,-165.586,0
5571,5678,-202.408,0
5572,5664,-239.581,0
5573,5633,-274.776,0
5574,5597,-306.358,0
5575,5562,-333.456,0
5576,5547,-355.739,0
5577,5571,-373.138,0
5578,5604,-385.586,0
5579,5634,-392.943,0
5580,5639,-395.244,0
5581,5610,-393.142,0
5582,5578,-388.167,0
5583,5535,-382.491,0
5584,5505,-378.279,0
5585,5499,-377.076,0
5586,5526,-379.463,0
5587,5572,-384.941,0
5588,5601,-392.013,0
5589,5600,-398.603,0
5590,5577,-402.811,0
5591,5540,-403.605,0
5592,5507,-401.067,0
5593,5511,-396.167,0
5594,5528,-390.195,0
5595,5544,-384.240,0
5596,5573,-379.040,0
5597,5576,-375.064,0
5598,5552,-372.553,0
5599,5527,-371.541,0
5600,5503,-371.840,0
5601,5501,-372.945,0
5602,5520,-373.987,0
5603,5554,-373.898,0
5604,5591,-371.712,0
5605,5595,-366.905,0
5606,5578,-359.668,0
5607,5549,-350.989,0
5608,5521,-342.338,0
5609,5506,-335.060,0
5610,5509,-329.865,0
5611,5538,-326.704,0
5612,5573,-324.951,0
5613,5601,-323.682,0
5614,5603,-321.959,0
5615,5581,-319.086,0
5616,5550,-314.795,0
5617,5536,-309.258,0
5618,5541,-302.860,0
5619,5573,-295.889,0
5620,5622,-288.341,0
5621,5661,-279.915,0
5622,5683,-270.157,0
5623,5685,-258.693,0
5624,5681,-245.355,0
5625,5679,-230.109,0
5626,5698,-212.896,0
5627,5727,-193.580,0
5628,5760,-172.134,0
5629,5799,-148.962,0
5630,5815,-125.079,0
5631,5807,-101.955,0
5632,5786,-81.159,0
5633,5761,-63.955,0
5634,5756,-50.941,0
5635,5788,-41.844,0
5636,5860,-35.414,0
5637,5939,-29.432,0
5638,6001,-21.013,0
5639,6038,-7.321,0
5640,6052,13.571,0
5641,6059,42.150,0
5642,6081,77.514,0
5643,6133,117.901,0
5644,6201,161.413,0
5645,6267,206.501,0
5646,6308,251.953,0
5647,6303,296.454,0
5648,6257,338.064,0
5649,6195,374.008,0
5650,6127,401.022,0
5651,6078,416.124,0
5652,6073,417.441,0
5653,6090,404.871,0
5654,6110,380.368,0
5655,6114,347.635,0
5656,6102,311.266,0
5657,6063,275.758,0
5658,6018,244.662,0
5659,5994,220.027,0
5660,5952,202.194,0
5661,5925,189.770,0
5662,5910,179.773,0
5663,5884,168.258,0
5664,5846,151.469,0
5665,5811,127.008,0
5666,5779,94.655,0
5667,5759,56.597,0
5668,5755,16.849,0
5669,5777,-19.961,0
5670,5819,-49.893,0
5671,5853,-70.505,0
5672,5873,-81.038,0
5673,5865,-82.196,0
5674,5848,-75.708,0
5675,5836,-63.822,0
5676,5850,-48.759,0
5677,5885,-32.253,0
5678,5910,-15.359,0
5679,5924,1.261,0
5680,5921,16.772,0
5681,5906,29.892,0
5682,5876,39.212,0
5683,5853,43.826,0
5684,5847,43.808,0
5685,5864,40.303,0
5686,5905,35.223,0
5687,5953,30.751,0
5688,5977,28.836,0
5689,5973,30.727,0
5690,5939,36.607,0
5691,5898,45.468,0
5692,5875,55.408,0
5693,5881,64.294,0
5694,5913,70.542,0
5695,5969,73.679,0
5696,6058,74.576,0
5697,6138,75.549,0
5698,6222,80.285,0
5699,6302,93.375,0
5700,6390,119.478,0
5701,6500,162.330,0
5702,6652,223.946,0
5703,6856,304.455,0
5704,7106,402.782,0
5705,7413,517.997,0
5706,7793,650.908,0
5707,8246,805.448,0
5708,8715,989.215,0
5709,9135,1212.137,0
5710,9432,1482.659,0
5711,9530,1802.133,0
5712,9338,2159.199,0
5713,8816,2526.070,0
5714,7992,2858.182,0
5715,7032,3098.425,0
5716,6139,3186.740,0
5717,5439,3074.277,0
5718,5041,2738.517,0
5719,4906,2193.978,0
5720,4973,1493.971,0
5721,5143,721.906,0
5722,5337,-25.605,0
5723,5492,-658.811,0
5724,5577,-1112.508,0
5725,5597,-1357.137,0
5726,5576,-1401.270,0
5727,5562,-1285.687,0
5728,5555,-1071.095,0
5729,5548,-823.021,0
5730,5535,-597.933,0
5731,5506,-433.802,0
5732,5471,-346.528,0
5733,5430,-331.986,0
5734,5416,-372.076,0
5735,5435,-442.427,0
5736,5463,-519.433,0
5737,5499,-585.139,0
5738,5507,-629.474,0
5739,5500,-650.025,0
5740,5463,-650.084,0
5741,5431,-635.974,0
5742,5418,-614.583,0
5743,5430,-591.655,0
5744,5470,-570.990,0
5745,5514,-554.436,0
5746,5543,-542.316,0
5747,5558,-533.954,0
5748,5558,-528.005,0
5749,5545,-522.587,0
5750,5539,-515.475,0
5751,5553,-504.603,0
5752,5577,-488.749,0
5753,5613,-468.089,0
5754,5643,-444.320,0
5755,5664,-420.140,0
5756,5656,-398.231,0
5757,5629,-380.280,0
5758,5609,-366.558,0
5759,5611,-356.113,0
5760,5635,-347.322,0
5761,5660,-338.593,0
5762,5673,-329.087,0
5763,5681,-319.177,0
5764,5673,-310.226,0
5765,5653,-303.700,0
5766,5638,-300.185,0
5767,5626,-298.948,0
5768,5650,-298.244,0
5769,5693,-296.084,0
5770,5732,-290.954,0
5771,5766,-282.270,0
5772,5782,-270.414,0
5773,5777,-256.313,0
5774,5767,-240.828,0
5775,5770,-224.327,0
5776,5783,-206.652,0
5777,5808,-187.475,0
5778,5849,-166.875,0
5779,5908,-145.622,0
5780,5934,-124.812,0
5781,5925,-105.245,0
5782,5908,-87.164,0
5783,5904,-70.360,0
5784,5917,-54.268,0
5785,5948,-38.083,0
5786,5991,-21.072,0
5787,6035,-2.978,0
5788,6076,15.841,0
5789,6084,34.709,0
5790,6065,53.071,0
5791,6050,70.691,0
5792,6042,87.577,0
5793,6048,103.813,0
5794,6081,119.315,0
5795,6153,133.736,0
5796,6210,146.838,0
5797,6242,159.032,0
5798,6247,171.496,0
5799,6233,185.739,0
5800,6236,202.979,0
5801,6264,223.746,0
5802,6313,247.853,0
5803,6389,274.604,0
5804,6457,303.106,0
5805,6510,332.615,0
5806,6524,362.747,0
5807,6519,393.416,0
5808,6510,424.564,0
5809,6524,455.895,0
5810,6567,486.826,0
5811,6625,516.653,0
5812,6695,544.783,0
5813,6762,570.966,0
5814,6789,595.530,0
5815,6801,619.398,0
5816,6805,643.786,0
5817,6819,669.782,0
5818,6868,698.031,0
5819,6953,728.661,0
5820,7038,761.498,0
5821,7102,796.287,0
5822,7144,832.674,0
5823,7161,870.088,0
5824,7138,907.732,0
5825,7115,944.524,0
5826,7100,978.915,0
5827,7105,1008.803,0
5828,7130,1031.799,0
5829,7156,1045.797,0
5830,7173,1049.688,0
5831,7170,1043.914,0
5832,7156,1030.598,0
5833,7136,1013.156,0
5834,7120,995.428,0
5835,7131,980.594,0
5836,7142,970.287,0
5837,7140,964.202,0
5838,7123,960.210,0
5839,7060,954.922,0
5840,6968,944.529,0
5841,6857,925.567,0
5842,6760,895.439,0
5843,6679,852.719,0
5844,6639,797.281,0
5845,6626,730.354,0
5846,6596,654.534,0
5847,6539,573.509,0
5848,6446,491.284,0
5849,6343,411.197,0
5850,6259,335.272,0
5851,6208,264.209,0
5852,6170,197.860,0
5853,6136,135.637,0
5854,6095,76.553,0
5855,6036,19.171,0
5856,5956,-38.196,0
5857,5849,-97.023,0
5858,5757,-158.181,0
5859,5693,-221.752,0
5860,5662,-286.956,0
5861,5650,-352.244,0
5862,5644,-415.663,0
5863,5631,-475.339,0
5864,5609,-529.797,0
5865,5585,-577.906,0
5866,5556,-618.598,0
5867,5548,-650.713,0
5868,5570,-673.175,0
5869,5602,-685.360,0
5870,5623,-687.525,0
5871,5623,-681.222,0
5872,5598,-669.433,0
5873,5578,-656.062,0
5874,5556,-644.776,0
5875,5540,-637.743,0
5876,5535,-635.094,0
5877,5526,-635.475,0
5878,5548,-637.235,0
5879,5569,-639.361,0
5880,5566,-641.618,0
5881,5520,-644.215,0
5882,5450,-647.648,0
5883,5371,-652.797,0
5884,5306,-660.979,0
5885,5257,-673.801,0
5886,5247,-692.805,0
5887,5252,-718.922,0
5888,5250,-751.851,0
5889,5225,-789.749,0
5890,5189,-829.517,0
5891,5157,-867.499,0
5892,5138,-900.222,0
5893,5148,-924.986,0
5894,5185,-940.241,0
5895,5231,-945.689,0
5896,5261,-942.124,0
5897,5259,-931.185,0
5898,5236,-915.118,0
5899,5200,-896.467,0
5900,5174,-877.660,0
5901,5182,-860.557,0
5902,5202,-846.129,0
5903,5242,-834.414,0
5904,5276,-824.786,0
5905,5284,-816.333,0
5906,5271,-808.200,0
5907,5243,-799.790,0
5908,5216,-790.795,0
5909,5204,-781.126,0
5910,5213,-770.871,0
5911,5238,-760.323,0
5912,5261,-750.003,0
5913,5261,-740.627,0
5914,5242,-733.005,0
5915,5210,-727.856,0
5916,5186,-725.484,0
5917,5181,-725.449,0
5918,5186,-726.494,0
5919,5208,-726.936,0
5920,5234,-725.378,0
5921,5248,-721.265,0
5922,5245,-714.990,0
